##NAMES=Analcime
##RRUFFID=R060023
##IDEAL CHEMISTRY=NaAlSi_2_O_6_&#183;H_2_O
##LOCALITY=Dallas, Oregon, USA
##OWNER=RRUFF
##SOURCE=Bob Downs
##DESCRIPTION=White trapezohedral crystal associated with levyne-Na, R060021
##DIFFRACTION SAMPLE DESCRIPTION=Powder
##STATUS=The identification of this mineral has been confirmed by X-ray diffraction and chemical analysis
##URL=rruff.info/R060023
##MEASURED CHEMISTRY=(Na_0.98_[box]_0.02_)_Σ=1_(Si_2.02_Al_0.98_)O_6_·H_2_O
##CELL PARAMETERS=a: 13.7213(7) b: 13.7213(7) c: 13.722(2) alpha: 90 beta: 90 gamma: 90 volume: 2583.6(0) crystal system: tetragonal
5, 32
5.01, 31
5.02, 26
5.03, 48
5.04, 37
5.05, 31
5.06, 41
5.07, 32
5.08, 31
5.09, 31
5.1, 33
5.11, 35
5.12, 25
5.13, 38
5.14, 37
5.15, 36
5.16, 45
5.17, 31
5.18, 40
5.19, 35
5.2, 36
5.21, 39
5.22, 36
5.23, 34
5.24, 30
5.25, 26
5.26, 28
5.27, 33
5.28, 30
5.29, 40
5.3, 27
5.31, 33
5.32, 39
5.33, 27
5.34, 35
5.35, 42
5.36, 39
5.37, 38
5.38, 30
5.39, 49
5.4, 45
5.41, 34
5.42, 38
5.43, 39
5.44, 43
5.45, 34
5.46, 35
5.47, 29
5.48, 34
5.49, 28
5.5, 35
5.51, 41
5.52, 32
5.53, 35
5.54, 39
5.55, 36
5.56, 40
5.57, 40
5.58, 34
5.59, 35
5.6, 31
5.61, 42
5.62, 35
5.63, 40
5.64, 33
5.65, 34
5.66, 37
5.67, 46
5.68, 41
5.69, 38
5.7, 36
5.71, 41
5.72, 38
5.73, 44
5.74, 44
5.75, 35
5.76, 36
5.77, 33
5.78, 41
5.79, 37
5.8, 40
5.81, 40
5.82, 35
5.83, 32
5.84, 39
5.85, 48
5.86, 36
5.87, 31
5.88, 32
5.89, 33
5.9, 39
5.91, 46
5.92, 32
5.93, 37
5.94, 44
5.95, 26
5.96, 34
5.97, 36
5.98, 37
5.99, 34
6, 33
6.01, 29
6.02, 25
6.03, 25
6.04, 37
6.05, 38
6.06, 44
6.07, 33
6.08, 41
6.09, 25
6.1, 31
6.11, 21
6.12, 30
6.13, 36
6.14, 27
6.15, 34
6.16, 40
6.17, 28
6.18, 28
6.19, 35
6.2, 16
6.21, 26
6.22, 26
6.23, 21
6.24, 29
6.25, 25
6.26, 21
6.27, 23
6.28, 23
6.29, 15
6.3, 25
6.31, 24
6.32, 18
6.33, 27
6.34, 23
6.35, 27
6.36, 35
6.37, 16
6.38, 21
6.39, 17
6.4, 24
6.41, 22
6.42, 14
6.43, 20
6.44, 20
6.45, 29
6.46, 21
6.47, 26
6.48, 23
6.49, 24
6.5, 23
6.51, 17
6.52, 22
6.53, 23
6.54, 25
6.55, 22
6.56, 22
6.57, 30
6.58, 27
6.59, 23
6.6, 29
6.61, 20
6.62, 19
6.63, 18
6.64, 26
6.65, 30
6.66, 15
6.67, 24
6.68, 27
6.69, 22
6.7, 27
6.71, 25
6.72, 25
6.73, 23
6.74, 16
6.75, 20
6.76, 26
6.77, 22
6.78, 25
6.79, 27
6.8, 28
6.81, 18
6.82, 19
6.83, 21
6.84, 15
6.85, 17
6.86, 34
6.87, 15
6.88, 16
6.89, 26
6.9, 19
6.91, 14
6.92, 26
6.93, 19
6.94, 16
6.95, 25
6.96, 22
6.97, 26
6.98, 28
6.99, 22
7, 23
7.01, 18
7.02, 20
7.03, 26
7.04, 20
7.05, 21
7.06, 18
7.07, 23
7.08, 30
7.09, 35
7.1, 17
7.11, 23
7.12, 18
7.13, 15
7.14, 25
7.15, 26
7.16, 15
7.17, 29
7.18, 18
7.19, 22
7.2, 22
7.21, 19
7.22, 18
7.23, 37
7.24, 26
7.25, 22
7.26, 20
7.27, 16
7.28, 19
7.29, 17
7.3, 19
7.31, 13
7.32, 19
7.33, 20
7.34, 17
7.35, 15
7.36, 14
7.37, 18
7.38, 12
7.39, 14
7.4, 18
7.41, 21
7.42, 17
7.43, 29
7.44, 18
7.45, 20
7.46, 17
7.47, 26
7.48, 19
7.49, 20
7.5, 19
7.51, 10
7.52, 15
7.53, 13
7.54, 20
7.55, 30
7.56, 28
7.57, 12
7.58, 21
7.59, 16
7.6, 15
7.61, 11
7.62, 20
7.63, 20
7.64, 22
7.65, 13
7.66, 17
7.67, 20
7.68, 12
7.69, 20
7.7, 11
7.71, 18
7.72, 17
7.73, 12
7.74, 18
7.75, 13
7.76, 15
7.77, 16
7.78, 21
7.79, 21
7.8, 21
7.81, 23
7.82, 20
7.83, 18
7.84, 15
7.85, 15
7.86, 20
7.87, 14
7.88, 14
7.89, 14
7.9, 16
7.91, 32
7.92, 21
7.93, 19
7.94, 22
7.95, 13
7.96, 18
7.97, 19
7.98, 19
7.99, 17
8, 20
8.01, 17
8.02, 17
8.03, 12
8.04, 15
8.05, 14
8.06, 17
8.07, 22
8.08, 19
8.09, 16
8.1, 17
8.11, 14
8.12, 22
8.13, 13
8.14, 20
8.15, 19
8.16, 16
8.17, 14
8.18, 16
8.19, 20
8.2, 18
8.21, 9
8.22, 17
8.23, 16
8.24, 14
8.25, 16
8.26, 18
8.27, 17
8.28, 10
8.29, 14
8.3, 13
8.31, 19
8.32, 13
8.33, 12
8.34, 16
8.35, 9
8.36, 22
8.37, 11
8.38, 14
8.39, 14
8.4, 16
8.41, 14
8.42, 17
8.43, 6
8.44, 18
8.45, 15
8.46, 13
8.47, 18
8.48, 18
8.49, 14
8.5, 15
8.51, 15
8.52, 16
8.53, 8
8.54, 22
8.55, 14
8.56, 17
8.57, 12
8.58, 19
8.59, 13
8.6, 23
8.61, 13
8.62, 14
8.63, 10
8.64, 15
8.65, 12
8.66, 16
8.67, 14
8.68, 12
8.69, 7
8.7, 7
8.71, 10
8.72, 7
8.73, 17
8.74, 16
8.75, 15
8.76, 17
8.77, 16
8.78, 13
8.79, 22
8.8, 24
8.81, 12
8.82, 12
8.83, 17
8.84, 12
8.85, 14
8.86, 20
8.87, 11
8.88, 11
8.89, 15
8.9, 20
8.91, 8
8.92, 21
8.93, 8
8.94, 11
8.95, 8
8.96, 19
8.97, 11
8.98, 25
8.99, 15
9, 17
9.01, 17
9.02, 10
9.03, 17
9.04, 18
9.05, 9
9.06, 16
9.07, 24
9.08, 11
9.09, 11
9.1, 15
9.11, 17
9.12, 17
9.13, 13
9.14, 20
9.15, 16
9.16, 15
9.17, 13
9.18, 19
9.19, 16
9.2, 12
9.21, 12
9.22, 13
9.23, 17
9.24, 13
9.25, 9
9.26, 11
9.27, 16
9.28, 13
9.29, 13
9.3, 11
9.31, 10
9.32, 14
9.33, 11
9.34, 17
9.35, 4
9.36, 21
9.37, 14
9.38, 12
9.39, 17
9.4, 16
9.41, 20
9.42, 17
9.43, 12
9.44, 14
9.45, 15
9.46, 11
9.47, 19
9.48, 19
9.49, 6
9.5, 18
9.51, 16
9.52, 15
9.53, 11
9.54, 13
9.55, 17
9.56, 24
9.57, 16
9.58, 12
9.59, 20
9.6, 11
9.61, 12
9.62, 15
9.63, 14
9.64, 17
9.65, 19
9.66, 10
9.67, 14
9.68, 16
9.69, 19
9.7, 13
9.71, 17
9.72, 17
9.73, 12
9.74, 24
9.75, 20
9.76, 14
9.77, 20
9.78, 15
9.79, 16
9.8, 14
9.81, 18
9.82, 15
9.83, 15
9.84, 22
9.85, 19
9.86, 9
9.87, 15
9.88, 24
9.89, 14
9.9, 15
9.91, 16
9.92, 17
9.93, 18
9.94, 13
9.95, 20
9.96, 10
9.97, 13
9.98, 14
9.99, 18
10, 22
10.01, 18
10.02, 14
10.03, 15
10.04, 17
10.05, 20
10.06, 14
10.07, 16
10.08, 23
10.09, 11
10.1, 10
10.11, 14
10.12, 17
10.13, 16
10.14, 16
10.15, 18
10.16, 20
10.17, 15
10.18, 19
10.19, 9
10.2, 19
10.21, 15
10.22, 15
10.23, 13
10.24, 14
10.25, 14
10.26, 22
10.27, 22
10.28, 17
10.29, 10
10.3, 10
10.31, 13
10.32, 16
10.33, 11
10.34, 13
10.35, 16
10.36, 20
10.37, 17
10.38, 12
10.39, 13
10.4, 16
10.41, 14
10.42, 23
10.43, 14
10.44, 13
10.45, 11
10.46, 17
10.47, 16
10.48, 21
10.49, 16
10.5, 14
10.51, 14
10.52, 17
10.53, 12
10.54, 15
10.55, 10
10.56, 11
10.57, 15
10.58, 22
10.59, 13
10.6, 15
10.61, 23
10.62, 19
10.63, 14
10.64, 15
10.65, 12
10.66, 17
10.67, 15
10.68, 10
10.69, 15
10.7, 13
10.71, 18
10.72, 19
10.73, 23
10.74, 20
10.75, 16
10.76, 24
10.77, 12
10.78, 14
10.79, 12
10.8, 16
10.81, 15
10.82, 22
10.83, 11
10.84, 14
10.85, 17
10.86, 22
10.87, 15
10.88, 21
10.89, 15
10.9, 14
10.91, 26
10.92, 17
10.93, 17
10.94, 13
10.95, 11
10.96, 16
10.97, 15
10.98, 22
10.99, 14
11, 24
11.01, 16
11.02, 15
11.03, 15
11.04, 16
11.05, 20
11.06, 18
11.07, 17
11.08, 17
11.09, 21
11.1, 16
11.11, 21
11.12, 23
11.13, 24
11.14, 15
11.15, 13
11.16, 17
11.17, 9
11.18, 18
11.19, 12
11.2, 16
11.21, 15
11.22, 15
11.23, 13
11.24, 10
11.25, 11
11.26, 16
11.27, 21
11.28, 15
11.29, 17
11.3, 18
11.31, 15
11.32, 14
11.33, 16
11.34, 18
11.35, 13
11.36, 19
11.37, 19
11.38, 16
11.39, 18
11.4, 22
11.41, 18
11.42, 21
11.43, 15
11.44, 22
11.45, 12
11.46, 12
11.47, 14
11.48, 16
11.49, 15
11.5, 14
11.51, 22
11.52, 22
11.53, 22
11.54, 14
11.55, 12
11.56, 15
11.57, 15
11.58, 17
11.59, 19
11.6, 15
11.61, 15
11.62, 14
11.63, 16
11.64, 19
11.65, 19
11.66, 22
11.67, 18
11.68, 13
11.69, 23
11.7, 18
11.71, 17
11.72, 19
11.73, 11
11.74, 14
11.75, 14
11.76, 14
11.77, 22
11.78, 17
11.79, 19
11.8, 22
11.81, 12
11.82, 18
11.83, 16
11.84, 12
11.85, 11
11.86, 14
11.87, 15
11.88, 16
11.89, 15
11.9, 17
11.91, 16
11.92, 20
11.93, 19
11.94, 13
11.95, 15
11.96, 18
11.97, 9
11.98, 11
11.99, 15
12, 22
12.01, 12
12.02, 13
12.03, 16
12.04, 26
12.05, 13
12.06, 14
12.07, 16
12.08, 11
12.09, 13
12.1, 14
12.11, 17
12.12, 17
12.13, 8
12.14, 15
12.15, 20
12.16, 18
12.17, 19
12.18, 10
12.19, 17
12.2, 16
12.21, 11
12.22, 18
12.23, 17
12.24, 18
12.25, 25
12.26, 23
12.27, 15
12.28, 15
12.29, 22
12.3, 16
12.31, 15
12.32, 12
12.33, 19
12.34, 13
12.35, 19
12.36, 15
12.37, 21
12.38, 15
12.39, 21
12.4, 17
12.41, 12
12.42, 9
12.43, 19
12.44, 21
12.45, 13
12.46, 22
12.47, 16
12.48, 15
12.49, 11
12.5, 10
12.51, 14
12.52, 16
12.53, 17
12.54, 20
12.55, 11
12.56, 13
12.57, 18
12.58, 16
12.59, 18
12.6, 14
12.61, 10
12.62, 20
12.63, 13
12.64, 17
12.65, 19
12.66, 16
12.67, 16
12.68, 22
12.69, 11
12.7, 20
12.71, 17
12.72, 14
12.73, 14
12.74, 22
12.75, 18
12.76, 16
12.77, 15
12.78, 20
12.79, 13
12.8, 21
12.81, 15
12.82, 15
12.83, 18
12.84, 15
12.85, 17
12.86, 16
12.87, 18
12.88, 16
12.89, 26
12.9, 19
12.91, 19
12.92, 23
12.93, 25
12.94, 30
12.95, 26
12.96, 34
12.97, 33
12.98, 29
12.99, 21
13, 21
13.01, 23
13.02, 22
13.03, 15
13.04, 15
13.05, 16
13.06, 13
13.07, 18
13.08, 10
13.09, 17
13.1, 10
13.11, 17
13.12, 26
13.13, 13
13.14, 15
13.15, 9
13.16, 18
13.17, 19
13.18, 20
13.19, 18
13.2, 17
13.21, 13
13.22, 18
13.23, 14
13.24, 10
13.25, 21
13.26, 21
13.27, 15
13.28, 14
13.29, 17
13.3, 21
13.31, 19
13.32, 16
13.33, 11
13.34, 12
13.35, 22
13.36, 21
13.37, 10
13.38, 14
13.39, 12
13.4, 20
13.41, 17
13.42, 16
13.43, 12
13.44, 19
13.45, 16
13.46, 14
13.47, 17
13.48, 15
13.49, 13
13.5, 14
13.51, 17
13.52, 19
13.53, 18
13.54, 20
13.55, 14
13.56, 11
13.57, 14
13.58, 10
13.59, 9
13.6, 17
13.61, 16
13.62, 11
13.63, 19
13.64, 16
13.65, 16
13.66, 23
13.67, 14
13.68, 13
13.69, 19
13.7, 20
13.71, 11
13.72, 16
13.73, 12
13.74, 22
13.75, 12
13.76, 13
13.77, 17
13.78, 16
13.79, 17
13.8, 14
13.81, 20
13.82, 9
13.83, 17
13.84, 13
13.85, 18
13.86, 19
13.87, 8
13.88, 16
13.89, 19
13.9, 14
13.91, 12
13.92, 15
13.93, 22
13.94, 14
13.95, 18
13.96, 14
13.97, 17
13.98, 13
13.99, 20
14, 17
14.01, 13
14.02, 14
14.03, 21
14.04, 18
14.05, 21
14.06, 13
14.07, 17
14.08, 13
14.09, 18
14.1, 13
14.11, 15
14.12, 15
14.13, 18
14.14, 13
14.15, 22
14.16, 11
14.17, 18
14.18, 6
14.19, 16
14.2, 18
14.21, 14
14.22, 19
14.23, 16
14.24, 15
14.25, 19
14.26, 23
14.27, 23
14.28, 34
14.29, 26
14.3, 16
14.31, 29
14.32, 37
14.33, 57
14.34, 31
14.35, 57
14.36, 44
14.37, 21
14.38, 23
14.39, 28
14.4, 20
14.41, 23
14.42, 22
14.43, 13
14.44, 13
14.45, 20
14.46, 17
14.47, 22
14.48, 14
14.49, 17
14.5, 17
14.51, 19
14.52, 14
14.53, 8
14.54, 20
14.55, 14
14.56, 12
14.57, 10
14.58, 24
14.59, 14
14.6, 20
14.61, 24
14.62, 15
14.63, 17
14.64, 15
14.65, 9
14.66, 21
14.67, 11
14.68, 15
14.69, 21
14.7, 12
14.71, 16
14.72, 8
14.73, 16
14.74, 17
14.75, 17
14.76, 16
14.77, 20
14.78, 18
14.79, 20
14.8, 19
14.81, 14
14.82, 18
14.83, 12
14.84, 18
14.85, 17
14.86, 19
14.87, 16
14.88, 14
14.89, 17
14.9, 18
14.91, 10
14.92, 16
14.93, 20
14.94, 16
14.95, 9
14.96, 17
14.97, 12
14.98, 21
14.99, 10
15, 13
15.01, 20
15.02, 12
15.03, 16
15.04, 12
15.05, 22
15.06, 11
15.07, 10
15.08, 20
15.09, 14
15.1, 13
15.11, 15
15.12, 12
15.13, 19
15.14, 9
15.15, 16
15.16, 13
15.17, 15
15.18, 19
15.19, 18
15.2, 19
15.21, 15
15.22, 21
15.23, 23
15.24, 19
15.25, 15
15.26, 20
15.27, 16
15.28, 19
15.29, 23
15.3, 16
15.31, 14
15.32, 15
15.33, 17
15.34, 23
15.35, 18
15.36, 25
15.37, 20
15.38, 20
15.39, 24
15.4, 20
15.41, 16
15.42, 38
15.43, 21
15.44, 21
15.45, 18
15.46, 18
15.47, 17
15.48, 21
15.49, 31
15.5, 16
15.51, 28
15.52, 21
15.53, 18
15.54, 30
15.55, 23
15.56, 26
15.57, 18
15.58, 23
15.59, 21
15.6, 24
15.61, 26
15.62, 33
15.63, 21
15.64, 30
15.65, 22
15.66, 31
15.67, 34
15.68, 36
15.69, 28
15.7, 39
15.71, 51
15.72, 43
15.73, 53
15.74, 67
15.75, 80
15.76, 75
15.77, 129
15.78, 128
15.79, 199
15.8, 248
15.81, 312
15.82, 371
15.83, 525
15.84, 706
15.85, 1014
15.86, 1249
15.87, 1454
15.88, 1492
15.89, 1461
15.9, 1327
15.91, 1070
15.92, 845
15.93, 674
15.94, 503
15.95, 346
15.96, 214
15.97, 148
15.98, 123
15.99, 92
16, 74
16.01, 68
16.02, 67
16.03, 64
16.04, 62
16.05, 55
16.06, 45
16.07, 43
16.08, 49
16.09, 46
16.1, 38
16.11, 34
16.12, 47
16.13, 36
16.14, 26
16.15, 28
16.16, 28
16.17, 18
16.18, 18
16.19, 29
16.2, 30
16.21, 26
16.22, 14
16.23, 24
16.24, 23
16.25, 23
16.26, 16
16.27, 21
16.28, 21
16.29, 27
16.3, 20
16.31, 26
16.32, 15
16.33, 32
16.34, 15
16.35, 24
16.36, 23
16.37, 18
16.38, 19
16.39, 18
16.4, 28
16.41, 26
16.42, 20
16.43, 22
16.44, 22
16.45, 22
16.46, 18
16.47, 25
16.48, 21
16.49, 16
16.5, 16
16.51, 23
16.52, 17
16.53, 20
16.54, 26
16.55, 26
16.56, 33
16.57, 27
16.58, 24
16.59, 27
16.6, 24
16.61, 19
16.62, 21
16.63, 10
16.64, 21
16.65, 17
16.66, 19
16.67, 19
16.68, 12
16.69, 18
16.7, 16
16.71, 29
16.72, 14
16.73, 17
16.74, 18
16.75, 24
16.76, 16
16.77, 17
16.78, 20
16.79, 13
16.8, 17
16.81, 22
16.82, 17
16.83, 13
16.84, 22
16.85, 16
16.86, 15
16.87, 16
16.88, 19
16.89, 15
16.9, 8
16.91, 20
16.92, 16
16.93, 23
16.94, 15
16.95, 11
16.96, 14
16.97, 18
16.98, 19
16.99, 9
17, 18
17.01, 11
17.02, 12
17.03, 22
17.04, 10
17.05, 14
17.06, 13
17.07, 18
17.08, 18
17.09, 15
17.1, 17
17.11, 16
17.12, 16
17.13, 15
17.14, 22
17.15, 17
17.16, 11
17.17, 18
17.18, 20
17.19, 24
17.2, 11
17.21, 13
17.22, 12
17.23, 18
17.24, 15
17.25, 13
17.26, 16
17.27, 18
17.28, 14
17.29, 17
17.3, 14
17.31, 20
17.32, 23
17.33, 13
17.34, 13
17.35, 20
17.36, 10
17.37, 12
17.38, 12
17.39, 16
17.4, 17
17.41, 24
17.42, 19
17.43, 12
17.44, 21
17.45, 16
17.46, 18
17.47, 19
17.48, 15
17.49, 13
17.5, 9
17.51, 16
17.52, 14
17.53, 13
17.54, 8
17.55, 13
17.56, 14
17.57, 21
17.58, 18
17.59, 23
17.6, 14
17.61, 13
17.62, 10
17.63, 13
17.64, 13
17.65, 15
17.66, 16
17.67, 14
17.68, 13
17.69, 10
17.7, 11
17.71, 22
17.72, 21
17.73, 18
17.74, 20
17.75, 17
17.76, 17
17.77, 15
17.78, 18
17.79, 15
17.8, 11
17.81, 13
17.82, 15
17.83, 18
17.84, 21
17.85, 10
17.86, 11
17.87, 20
17.88, 30
17.89, 7
17.9, 16
17.91, 13
17.92, 14
17.93, 11
17.94, 28
17.95, 16
17.96, 23
17.97, 13
17.98, 14
17.99, 18
18, 16
18.01, 15
18.02, 14
18.03, 13
18.04, 10
18.05, 14
18.06, 28
18.07, 23
18.08, 13
18.09, 14
18.1, 17
18.11, 17
18.12, 8
18.13, 12
18.14, 18
18.15, 28
18.16, 17
18.17, 21
18.18, 16
18.19, 20
18.2, 14
18.21, 28
18.22, 20
18.23, 31
18.24, 31
18.25, 44
18.26, 52
18.27, 52
18.28, 77
18.29, 108
18.3, 104
18.31, 148
18.32, 184
18.33, 229
18.34, 292
18.35, 258
18.36, 229
18.37, 219
18.38, 207
18.39, 171
18.4, 144
18.41, 119
18.42, 84
18.43, 61
18.44, 48
18.45, 37
18.46, 29
18.47, 29
18.48, 18
18.49, 31
18.5, 24
18.51, 36
18.52, 17
18.53, 20
18.54, 29
18.55, 21
18.56, 17
18.57, 13
18.58, 18
18.59, 19
18.6, 23
18.61, 14
18.62, 15
18.63, 17
18.64, 17
18.65, 14
18.66, 20
18.67, 17
18.68, 17
18.69, 11
18.7, 18
18.71, 14
18.72, 10
18.73, 12
18.74, 15
18.75, 20
18.76, 23
18.77, 12
18.78, 13
18.79, 12
18.8, 16
18.81, 18
18.82, 13
18.83, 16
18.84, 16
18.85, 15
18.86, 12
18.87, 17
18.88, 12
18.89, 23
18.9, 8
18.91, 9
18.92, 14
18.93, 16
18.94, 12
18.95, 13
18.96, 21
18.97, 18
18.98, 11
18.99, 13
19, 15
19.01, 13
19.02, 12
19.03, 8
19.04, 17
19.05, 15
19.06, 10
19.07, 13
19.08, 11
19.09, 16
19.1, 14
19.11, 15
19.12, 12
19.13, 18
19.14, 14
19.15, 16
19.16, 20
19.17, 8
19.18, 8
19.19, 10
19.2, 15
19.21, 12
19.22, 11
19.23, 6
19.24, 14
19.25, 15
19.26, 14
19.27, 13
19.28, 23
19.29, 18
19.3, 14
19.31, 16
19.32, 11
19.33, 14
19.34, 12
19.35, 14
19.36, 11
19.37, 16
19.38, 9
19.39, 7
19.4, 15
19.41, 18
19.42, 14
19.43, 12
19.44, 12
19.45, 14
19.46, 16
19.47, 9
19.48, 12
19.49, 15
19.5, 14
19.51, 15
19.52, 8
19.53, 13
19.54, 12
19.55, 11
19.56, 11
19.57, 14
19.58, 10
19.59, 14
19.6, 16
19.61, 27
19.62, 16
19.63, 10
19.64, 11
19.65, 13
19.66, 17
19.67, 10
19.68, 20
19.69, 9
19.7, 9
19.71, 12
19.72, 7
19.73, 12
19.74, 11
19.75, 11
19.76, 10
19.77, 12
19.78, 10
19.79, 13
19.8, 14
19.81, 13
19.82, 9
19.83, 10
19.84, 16
19.85, 15
19.86, 16
19.87, 6
19.88, 8
19.89, 8
19.9, 7
19.91, 9
19.92, 11
19.93, 12
19.94, 10
19.95, 17
19.96, 10
19.97, 13
19.98, 18
19.99, 8
20, 16
20.01, 17
20.02, 18
20.03, 13
20.04, 16
20.05, 14
20.06, 10
20.07, 6
20.08, 13
20.09, 12
20.1, 5
20.11, 17
20.12, 18
20.13, 18
20.14, 8
20.15, 14
20.16, 8
20.17, 14
20.18, 10
20.19, 10
20.2, 10
20.21, 17
20.22, 10
20.23, 16
20.24, 13
20.25, 17
20.26, 11
20.27, 10
20.28, 11
20.29, 13
20.3, 16
20.31, 13
20.32, 12
20.33, 20
20.34, 14
20.35, 7
20.36, 17
20.37, 15
20.38, 16
20.39, 13
20.4, 16
20.41, 14
20.42, 12
20.43, 15
20.44, 9
20.45, 17
20.46, 12
20.47, 20
20.48, 18
20.49, 8
20.5, 18
20.51, 9
20.52, 10
20.53, 11
20.54, 8
20.55, 16
20.56, 12
20.57, 11
20.58, 17
20.59, 12
20.6, 8
20.61, 11
20.62, 11
20.63, 17
20.64, 9
20.65, 11
20.66, 12
20.67, 12
20.68, 12
20.69, 16
20.7, 12
20.71, 9
20.72, 13
20.73, 4
20.74, 15
20.75, 10
20.76, 11
20.77, 9
20.78, 11
20.79, 14
20.8, 18
20.81, 12
20.82, 17
20.83, 15
20.84, 8
20.85, 14
20.86, 11
20.87, 14
20.88, 16
20.89, 7
20.9, 16
20.91, 13
20.92, 15
20.93, 10
20.94, 15
20.95, 13
20.96, 21
20.97, 13
20.98, 14
20.99, 19
21, 14
21.01, 15
21.02, 10
21.03, 11
21.04, 24
21.05, 6
21.06, 10
21.07, 10
21.08, 18
21.09, 16
21.1, 11
21.11, 11
21.12, 11
21.13, 14
21.14, 13
21.15, 14
21.16, 12
21.17, 11
21.18, 17
21.19, 7
21.2, 21
21.21, 10
21.22, 9
21.23, 11
21.24, 15
21.25, 22
21.26, 9
21.27, 14
21.28, 8
21.29, 10
21.3, 13
21.31, 8
21.32, 11
21.33, 8
21.34, 14
21.35, 9
21.36, 11
21.37, 11
21.38, 15
21.39, 15
21.4, 9
21.41, 10
21.42, 11
21.43, 13
21.44, 15
21.45, 9
21.46, 18
21.47, 14
21.48, 14
21.49, 10
21.5, 13
21.51, 11
21.52, 11
21.53, 8
21.54, 13
21.55, 18
21.56, 10
21.57, 17
21.58, 5
21.59, 18
21.6, 12
21.61, 10
21.62, 10
21.63, 11
21.64, 9
21.65, 22
21.66, 17
21.67, 14
21.68, 14
21.69, 16
21.7, 13
21.71, 9
21.72, 11
21.73, 13
21.74, 13
21.75, 17
21.76, 16
21.77, 16
21.78, 23
21.79, 13
21.8, 7
21.81, 16
21.82, 12
21.83, 15
21.84, 21
21.85, 12
21.86, 7
21.87, 13
21.88, 8
21.89, 12
21.9, 12
21.91, 15
21.92, 22
21.93, 9
21.94, 14
21.95, 17
21.96, 19
21.97, 11
21.98, 8
21.99, 15
22, 12
22.01, 19
22.02, 9
22.03, 7
22.04, 11
22.05, 16
22.06, 18
22.07, 16
22.08, 21
22.09, 6
22.1, 12
22.11, 16
22.12, 10
22.13, 13
22.14, 13
22.15, 13
22.16, 3
22.17, 15
22.18, 7
22.19, 13
22.2, 15
22.21, 11
22.22, 11
22.23, 9
22.24, 10
22.25, 18
22.26, 7
22.27, 12
22.28, 13
22.29, 8
22.3, 9
22.31, 16
22.32, 18
22.33, 9
22.34, 17
22.35, 12
22.36, 15
22.37, 10
22.38, 14
22.39, 17
22.4, 18
22.41, 12
22.42, 9
22.43, 10
22.44, 7
22.45, 13
22.46, 17
22.47, 12
22.48, 6
22.49, 11
22.5, 9
22.51, 8
22.52, 12
22.53, 14
22.54, 17
22.55, 12
22.56, 11
22.57, 7
22.58, 9
22.59, 13
22.6, 13
22.61, 9
22.62, 14
22.63, 7
22.64, 4
22.65, 7
22.66, 6
22.67, 15
22.68, 10
22.69, 17
22.7, 12
22.71, 9
22.72, 10
22.73, 8
22.74, 14
22.75, 14
22.76, 11
22.77, 10
22.78, 15
22.79, 10
22.8, 13
22.81, 16
22.82, 10
22.83, 10
22.84, 9
22.85, 12
22.86, 15
22.87, 10
22.88, 8
22.89, 10
22.9, 11
22.91, 12
22.92, 10
22.93, 6
22.94, 12
22.95, 10
22.96, 6
22.97, 11
22.98, 7
22.99, 14
23, 15
23.01, 3
23.02, 13
23.03, 9
23.04, 12
23.05, 11
23.06, 8
23.07, 13
23.08, 11
23.09, 11
23.1, 17
23.11, 9
23.12, 15
23.13, 16
23.14, 7
23.15, 12
23.16, 9
23.17, 18
23.18, 13
23.19, 12
23.2, 5
23.21, 12
23.22, 12
23.23, 14
23.24, 10
23.25, 12
23.26, 7
23.27, 13
23.28, 14
23.29, 13
23.3, 15
23.31, 10
23.32, 15
23.33, 10
23.34, 13
23.35, 13
23.36, 14
23.37, 17
23.38, 18
23.39, 12
23.4, 22
23.41, 19
23.42, 21
23.43, 37
23.44, 31
23.45, 47
23.46, 42
23.47, 49
23.48, 38
23.49, 44
23.5, 40
23.51, 38
23.52, 25
23.53, 24
23.54, 22
23.55, 28
23.56, 18
23.57, 13
23.58, 15
23.59, 16
23.6, 15
23.61, 21
23.62, 14
23.63, 15
23.64, 9
23.65, 7
23.66, 14
23.67, 14
23.68, 11
23.69, 15
23.7, 12
23.71, 12
23.72, 20
23.73, 11
23.74, 12
23.75, 15
23.76, 21
23.77, 8
23.78, 12
23.79, 10
23.8, 15
23.81, 13
23.82, 17
23.83, 13
23.84, 9
23.85, 13
23.86, 11
23.87, 12
23.88, 7
23.89, 16
23.9, 11
23.91, 8
23.92, 14
23.93, 11
23.94, 12
23.95, 13
23.96, 9
23.97, 14
23.98, 13
23.99, 11
24, 8
24.01, 11
24.02, 16
24.03, 18
24.04, 17
24.05, 11
24.06, 20
24.07, 8
24.08, 13
24.09, 11
24.1, 16
24.11, 11
24.12, 15
24.13, 18
24.14, 12
24.15, 18
24.16, 20
24.17, 11
24.18, 10
24.19, 17
24.2, 12
24.21, 17
24.22, 18
24.23, 16
24.24, 31
24.25, 26
24.26, 42
24.27, 46
24.28, 61
24.29, 87
24.3, 86
24.31, 124
24.32, 114
24.33, 116
24.34, 123
24.35, 87
24.36, 84
24.37, 94
24.38, 81
24.39, 59
24.4, 54
24.41, 60
24.42, 41
24.43, 41
24.44, 36
24.45, 18
24.46, 17
24.47, 24
24.48, 20
24.49, 15
24.5, 20
24.51, 14
24.52, 20
24.53, 15
24.54, 13
24.55, 14
24.56, 27
24.57, 9
24.58, 12
24.59, 15
24.6, 14
24.61, 16
24.62, 9
24.63, 19
24.64, 11
24.65, 9
24.66, 16
24.67, 11
24.68, 16
24.69, 14
24.7, 9
24.71, 15
24.72, 17
24.73, 14
24.74, 14
24.75, 15
24.76, 13
24.77, 9
24.78, 15
24.79, 15
24.8, 18
24.81, 16
24.82, 7
24.83, 11
24.84, 9
24.85, 15
24.86, 8
24.87, 8
24.88, 13
24.89, 17
24.9, 13
24.91, 12
24.92, 11
24.93, 16
24.94, 13
24.95, 14
24.96, 19
24.97, 14
24.98, 19
24.99, 26
25, 15
25.01, 14
25.02, 14
25.03, 17
25.04, 18
25.05, 18
25.06, 13
25.07, 14
25.08, 22
25.09, 24
25.1, 21
25.11, 24
25.12, 26
25.13, 19
25.14, 16
25.15, 17
25.16, 16
25.17, 24
25.18, 30
25.19, 21
25.2, 14
25.21, 18
25.22, 18
25.23, 21
25.24, 15
25.25, 30
25.26, 12
25.27, 19
25.28, 19
25.29, 14
25.3, 21
25.31, 15
25.32, 18
25.33, 22
25.34, 20
25.35, 17
25.36, 19
25.37, 24
25.38, 23
25.39, 30
25.4, 20
25.41, 15
25.42, 20
25.43, 15
25.44, 14
25.45, 19
25.46, 23
25.47, 20
25.48, 25
25.49, 18
25.5, 16
25.51, 19
25.52, 19
25.53, 13
25.54, 17
25.55, 14
25.56, 28
25.57, 20
25.58, 18
25.59, 21
25.6, 17
25.61, 14
25.62, 23
25.63, 21
25.64, 18
25.65, 23
25.66, 24
25.67, 20
25.68, 25
25.69, 23
25.7, 28
25.71, 19
25.72, 25
25.73, 22
25.74, 28
25.75, 23
25.76, 21
25.77, 27
25.78, 33
25.79, 27
25.8, 34
25.81, 45
25.82, 42
25.83, 43
25.84, 51
25.85, 60
25.86, 51
25.87, 73
25.88, 83
25.89, 88
25.9, 131
25.91, 134
25.92, 180
25.93, 245
25.94, 325
25.95, 415
25.96, 478
25.97, 644
25.98, 856
25.99, 1138
26, 1396
26.01, 1555
26.02, 1529
26.03, 1515
26.04, 1408
26.05, 1375
26.06, 1408
26.07, 1329
26.08, 1161
26.09, 938
26.1, 768
26.11, 680
26.12, 562
26.13, 433
26.14, 334
26.15, 254
26.16, 157
26.17, 161
26.18, 117
26.19, 107
26.2, 88
26.21, 78
26.22, 70
26.23, 65
26.24, 56
26.25, 61
26.26, 56
26.27, 52
26.28, 37
26.29, 46
26.3, 41
26.31, 29
26.32, 33
26.33, 32
26.34, 28
26.35, 31
26.36, 23
26.37, 31
26.38, 24
26.39, 29
26.4, 25
26.41, 22
26.42, 29
26.43, 16
26.44, 15
26.45, 18
26.46, 31
26.47, 14
26.48, 24
26.49, 23
26.5, 13
26.51, 20
26.52, 22
26.53, 18
26.54, 24
26.55, 18
26.56, 22
26.57, 26
26.58, 22
26.59, 16
26.6, 14
26.61, 15
26.62, 20
26.63, 21
26.64, 22
26.65, 15
26.66, 14
26.67, 20
26.68, 23
26.69, 22
26.7, 15
26.71, 11
26.72, 23
26.73, 18
26.74, 11
26.75, 15
26.76, 15
26.77, 15
26.78, 19
26.79, 14
26.8, 22
26.81, 19
26.82, 17
26.83, 24
26.84, 13
26.85, 18
26.86, 19
26.87, 13
26.88, 18
26.89, 20
26.9, 13
26.91, 25
26.92, 19
26.93, 16
26.94, 15
26.95, 20
26.96, 20
26.97, 20
26.98, 15
26.99, 23
27, 16
27.01, 26
27.02, 9
27.03, 14
27.04, 18
27.05, 13
27.06, 11
27.07, 27
27.08, 19
27.09, 27
27.1, 18
27.11, 11
27.12, 12
27.13, 12
27.14, 12
27.15, 14
27.16, 11
27.17, 22
27.18, 12
27.19, 13
27.2, 13
27.21, 17
27.22, 13
27.23, 14
27.24, 20
27.25, 13
27.26, 12
27.27, 16
27.28, 11
27.29, 13
27.3, 16
27.31, 9
27.32, 17
27.33, 19
27.34, 18
27.35, 17
27.36, 14
27.37, 17
27.38, 12
27.39, 10
27.4, 16
27.41, 23
27.42, 15
27.43, 11
27.44, 19
27.45, 17
27.46, 14
27.47, 10
27.48, 12
27.49, 11
27.5, 17
27.51, 19
27.52, 24
27.53, 17
27.54, 19
27.55, 26
27.56, 24
27.57, 38
27.58, 31
27.59, 29
27.6, 39
27.61, 32
27.62, 29
27.63, 31
27.64, 22
27.65, 20
27.66, 19
27.67, 25
27.68, 27
27.69, 14
27.7, 17
27.71, 12
27.72, 16
27.73, 15
27.74, 21
27.75, 9
27.76, 15
27.77, 23
27.78, 12
27.79, 15
27.8, 12
27.81, 14
27.82, 16
27.83, 17
27.84, 16
27.85, 16
27.86, 15
27.87, 14
27.88, 16
27.89, 15
27.9, 10
27.91, 20
27.92, 14
27.93, 14
27.94, 23
27.95, 13
27.96, 17
27.97, 13
27.98, 15
27.99, 14
28, 13
28.01, 14
28.02, 13
28.03, 13
28.04, 16
28.05, 11
28.06, 16
28.07, 14
28.08, 18
28.09, 14
28.1, 17
28.11, 10
28.12, 17
28.13, 11
28.14, 12
28.15, 11
28.16, 12
28.17, 18
28.18, 11
28.19, 16
28.2, 20
28.21, 19
28.22, 12
28.23, 14
28.24, 11
28.25, 10
28.26, 17
28.27, 22
28.28, 20
28.29, 19
28.3, 15
28.31, 10
28.32, 15
28.33, 10
28.34, 10
28.35, 13
28.36, 21
28.37, 17
28.38, 16
28.39, 17
28.4, 10
28.41, 14
28.42, 11
28.43, 12
28.44, 20
28.45, 13
28.46, 19
28.47, 14
28.48, 13
28.49, 18
28.5, 13
28.51, 10
28.52, 20
28.53, 7
28.54, 12
28.55, 18
28.56, 14
28.57, 18
28.58, 9
28.59, 19
28.6, 14
28.61, 7
28.62, 11
28.63, 18
28.64, 15
28.65, 10
28.66, 13
28.67, 10
28.68, 14
28.69, 14
28.7, 15
28.71, 18
28.72, 8
28.73, 12
28.74, 8
28.75, 16
28.76, 18
28.77, 12
28.78, 10
28.79, 22
28.8, 12
28.81, 11
28.82, 17
28.83, 16
28.84, 20
28.85, 9
28.86, 15
28.87, 12
28.88, 14
28.89, 13
28.9, 9
28.91, 19
28.92, 13
28.93, 15
28.94, 12
28.95, 11
28.96, 16
28.97, 17
28.98, 13
28.99, 10
29, 14
29.01, 20
29.02, 17
29.03, 10
29.04, 10
29.05, 11
29.06, 15
29.07, 18
29.08, 11
29.09, 10
29.1, 14
29.11, 15
29.12, 13
29.13, 18
29.14, 26
29.15, 23
29.16, 16
29.17, 13
29.18, 10
29.19, 20
29.2, 23
29.21, 10
29.22, 19
29.23, 13
29.24, 12
29.25, 18
29.26, 12
29.27, 12
29.28, 17
29.29, 11
29.3, 14
29.31, 12
29.32, 16
29.33, 9
29.34, 18
29.35, 7
29.36, 14
29.37, 13
29.38, 8
29.39, 19
29.4, 12
29.41, 13
29.42, 17
29.43, 22
29.44, 14
29.45, 11
29.46, 12
29.47, 13
29.48, 15
29.49, 18
29.5, 21
29.51, 17
29.52, 15
29.53, 13
29.54, 18
29.55, 12
29.56, 9
29.57, 20
29.58, 28
29.59, 17
29.6, 15
29.61, 16
29.62, 11
29.63, 15
29.64, 16
29.65, 25
29.66, 15
29.67, 19
29.68, 10
29.69, 18
29.7, 11
29.71, 15
29.72, 23
29.73, 21
29.74, 18
29.75, 21
29.76, 24
29.77, 21
29.78, 13
29.79, 22
29.8, 15
29.81, 16
29.82, 13
29.83, 16
29.84, 10
29.85, 12
29.86, 20
29.87, 18
29.88, 30
29.89, 15
29.9, 19
29.91, 13
29.92, 15
29.93, 9
29.94, 15
29.95, 12
29.96, 10
29.97, 19
29.98, 24
29.99, 27
30, 12
30.01, 20
30.02, 24
30.03, 14
30.04, 14
30.05, 15
30.06, 20
30.07, 21
30.08, 19
30.09, 17
30.1, 20
30.11, 15
30.12, 25
30.13, 11
30.14, 13
30.15, 17
30.16, 19
30.17, 8
30.18, 21
30.19, 14
30.2, 14
30.21, 14
30.22, 13
30.23, 17
30.24, 22
30.25, 9
30.26, 11
30.27, 13
30.28, 22
30.29, 12
30.3, 26
30.31, 20
30.32, 21
30.33, 17
30.34, 26
30.35, 25
30.36, 23
30.37, 28
30.38, 21
30.39, 21
30.4, 24
30.41, 25
30.42, 31
30.43, 42
30.44, 33
30.45, 46
30.46, 52
30.47, 42
30.48, 61
30.49, 79
30.5, 87
30.51, 97
30.52, 140
30.53, 170
30.54, 256
30.55, 309
30.56, 420
30.57, 577
30.58, 681
30.59, 882
30.6, 937
30.61, 992
30.62, 864
30.63, 665
30.64, 575
30.65, 535
30.66, 533
30.67, 530
30.68, 532
30.69, 456
30.7, 408
30.71, 340
30.72, 224
30.73, 168
30.74, 123
30.75, 111
30.76, 82
30.77, 58
30.78, 60
30.79, 51
30.8, 46
30.81, 42
30.82, 38
30.83, 42
30.84, 33
30.85, 39
30.86, 27
30.87, 42
30.88, 23
30.89, 27
30.9, 20
30.91, 29
30.92, 17
30.93, 23
30.94, 17
30.95, 34
30.96, 21
30.97, 13
30.98, 20
30.99, 17
31, 17
31.01, 17
31.02, 14
31.03, 21
31.04, 21
31.05, 25
31.06, 12
31.07, 22
31.08, 17
31.09, 24
31.1, 11
31.11, 14
31.12, 20
31.13, 19
31.14, 20
31.15, 16
31.16, 16
31.17, 18
31.18, 20
31.19, 10
31.2, 9
31.21, 14
31.22, 8
31.23, 21
31.24, 10
31.25, 18
31.26, 13
31.27, 13
31.28, 16
31.29, 18
31.3, 13
31.31, 16
31.32, 20
31.33, 14
31.34, 9
31.35, 12
31.36, 21
31.37, 14
31.38, 16
31.39, 16
31.4, 18
31.41, 11
31.42, 11
31.43, 15
31.44, 18
31.45, 13
31.46, 14
31.47, 17
31.48, 11
31.49, 13
31.5, 17
31.51, 17
31.52, 18
31.53, 11
31.54, 11
31.55, 15
31.56, 11
31.57, 18
31.58, 11
31.59, 11
31.6, 8
31.61, 9
31.62, 9
31.63, 15
31.64, 20
31.65, 11
31.66, 22
31.67, 9
31.68, 20
31.69, 16
31.7, 11
31.71, 24
31.72, 17
31.73, 11
31.74, 10
31.75, 17
31.76, 18
31.77, 10
31.78, 13
31.79, 23
31.8, 18
31.81, 20
31.82, 18
31.83, 18
31.84, 18
31.85, 19
31.86, 21
31.87, 20
31.88, 13
31.89, 33
31.9, 22
31.91, 32
31.92, 41
31.93, 32
31.94, 36
31.95, 68
31.96, 65
31.97, 60
31.98, 66
31.99, 91
32, 91
32.01, 97
32.02, 75
32.03, 65
32.04, 57
32.05, 80
32.06, 60
32.07, 61
32.08, 56
32.09, 65
32.1, 42
32.11, 33
32.12, 36
32.13, 25
32.14, 17
32.15, 13
32.16, 16
32.17, 20
32.18, 21
32.19, 21
32.2, 25
32.21, 18
32.22, 14
32.23, 15
32.24, 13
32.25, 19
32.26, 18
32.27, 13
32.28, 11
32.29, 10
32.3, 16
32.31, 10
32.32, 11
32.33, 13
32.34, 23
32.35, 18
32.36, 17
32.37, 18
32.38, 10
32.39, 17
32.4, 8
32.41, 11
32.42, 9
32.43, 16
32.44, 11
32.45, 14
32.46, 8
32.47, 14
32.48, 11
32.49, 16
32.5, 12
32.51, 7
32.52, 15
32.53, 7
32.54, 15
32.55, 13
32.56, 14
32.57, 15
32.58, 12
32.59, 21
32.6, 16
32.61, 9
32.62, 13
32.63, 17
32.64, 10
32.65, 11
32.66, 13
32.67, 21
32.68, 8
32.69, 13
32.7, 19
32.71, 18
32.72, 15
32.73, 14
32.74, 9
32.75, 9
32.76, 10
32.77, 15
32.78, 15
32.79, 10
32.8, 13
32.81, 11
32.82, 11
32.83, 12
32.84, 10
32.85, 12
32.86, 12
32.87, 9
32.88, 12
32.89, 15
32.9, 14
32.91, 7
32.92, 13
32.93, 10
32.94, 19
32.95, 12
32.96, 20
32.97, 8
32.98, 14
32.99, 9
33, 19
33.01, 10
33.02, 12
33.03, 15
33.04, 19
33.05, 12
33.06, 13
33.07, 14
33.08, 7
33.09, 19
33.1, 10
33.11, 16
33.12, 25
33.13, 23
33.14, 19
33.15, 13
33.16, 14
33.17, 21
33.18, 20
33.19, 18
33.2, 23
33.21, 22
33.22, 31
33.23, 33
33.24, 43
33.25, 53
33.26, 47
33.27, 70
33.28, 85
33.29, 108
33.3, 148
33.31, 153
33.32, 180
33.33, 207
33.34, 227
33.35, 223
33.36, 213
33.37, 202
33.38, 170
33.39, 143
33.4, 128
33.41, 127
33.42, 137
33.43, 126
33.44, 99
33.45, 108
33.46, 97
33.47, 59
33.48, 52
33.49, 40
33.5, 38
33.51, 24
33.52, 31
33.53, 26
33.54, 27
33.55, 25
33.56, 21
33.57, 27
33.58, 20
33.59, 11
33.6, 20
33.61, 17
33.62, 16
33.63, 21
33.64, 16
33.65, 14
33.66, 19
33.67, 7
33.68, 15
33.69, 10
33.7, 20
33.71, 21
33.72, 15
33.73, 12
33.74, 16
33.75, 9
33.76, 11
33.77, 9
33.78, 16
33.79, 13
33.8, 19
33.81, 8
33.82, 19
33.83, 8
33.84, 16
33.85, 12
33.86, 21
33.87, 18
33.88, 18
33.89, 9
33.9, 10
33.91, 11
33.92, 11
33.93, 13
33.94, 17
33.95, 15
33.96, 8
33.97, 11
33.98, 11
33.99, 6
34, 14
34.01, 7
34.02, 7
34.03, 10
34.04, 9
34.05, 15
34.06, 21
34.07, 10
34.08, 13
34.09, 15
34.1, 13
34.11, 18
34.12, 9
34.13, 9
34.14, 13
34.15, 7
34.16, 12
34.17, 10
34.18, 13
34.19, 15
34.2, 11
34.21, 6
34.22, 13
34.23, 5
34.24, 9
34.25, 5
34.26, 17
34.27, 11
34.28, 11
34.29, 14
34.3, 12
34.31, 10
34.32, 10
34.33, 14
34.34, 18
34.35, 15
34.36, 6
34.37, 12
34.38, 15
34.39, 17
34.4, 16
34.41, 11
34.42, 4
34.43, 11
34.44, 13
34.45, 13
34.46, 23
34.47, 5
34.48, 9
34.49, 9
34.5, 17
34.51, 6
34.52, 11
34.53, 5
34.54, 10
34.55, 12
34.56, 10
34.57, 18
34.58, 12
34.59, 21
34.6, 13
34.61, 15
34.62, 11
34.63, 14
34.64, 10
34.65, 10
34.66, 11
34.67, 10
34.68, 16
34.69, 13
34.7, 7
34.71, 13
34.72, 12
34.73, 13
34.74, 9
34.75, 12
34.76, 17
34.77, 17
34.78, 11
34.79, 11
34.8, 9
34.81, 17
34.82, 16
34.83, 22
34.84, 8
34.85, 7
34.86, 9
34.87, 8
34.88, 19
34.89, 16
34.9, 10
34.91, 14
34.92, 21
34.93, 14
34.94, 11
34.95, 12
34.96, 8
34.97, 13
34.98, 11
34.99, 12
35, 16
35.01, 14
35.02, 15
35.03, 11
35.04, 9
35.05, 11
35.06, 19
35.07, 7
35.08, 15
35.09, 13
35.1, 13
35.11, 4
35.12, 9
35.13, 12
35.14, 8
35.15, 16
35.16, 11
35.17, 12
35.18, 11
35.19, 17
35.2, 9
35.21, 10
35.22, 12
35.23, 20
35.24, 14
35.25, 16
35.26, 15
35.27, 18
35.28, 11
35.29, 15
35.3, 13
35.31, 13
35.32, 14
35.33, 13
35.34, 11
35.35, 6
35.36, 16
35.37, 19
35.38, 15
35.39, 9
35.4, 10
35.41, 12
35.42, 5
35.43, 6
35.44, 18
35.45, 6
35.46, 5
35.47, 20
35.48, 14
35.49, 13
35.5, 14
35.51, 12
35.52, 11
35.53, 19
35.54, 21
35.55, 17
35.56, 16
35.57, 9
35.58, 14
35.59, 16
35.6, 11
35.61, 17
35.62, 16
35.63, 17
35.64, 15
35.65, 14
35.66, 15
35.67, 12
35.68, 14
35.69, 18
35.7, 22
35.71, 16
35.72, 15
35.73, 25
35.74, 26
35.75, 28
35.76, 20
35.77, 20
35.78, 42
35.79, 37
35.8, 60
35.81, 58
35.82, 78
35.83, 101
35.84, 111
35.85, 128
35.86, 154
35.87, 153
35.88, 176
35.89, 191
35.9, 189
35.91, 201
35.92, 226
35.93, 179
35.94, 143
35.95, 120
35.96, 114
35.97, 110
35.98, 113
35.99, 107
36, 108
36.01, 88
36.02, 103
36.03, 74
36.04, 45
36.05, 56
36.06, 30
36.07, 23
36.08, 25
36.09, 37
36.1, 20
36.11, 19
36.12, 17
36.13, 19
36.14, 25
36.15, 16
36.16, 18
36.17, 25
36.18, 15
36.19, 10
36.2, 20
36.21, 10
36.22, 9
36.23, 12
36.24, 12
36.25, 13
36.26, 19
36.27, 10
36.28, 8
36.29, 18
36.3, 14
36.31, 13
36.32, 17
36.33, 14
36.34, 15
36.35, 14
36.36, 18
36.37, 17
36.38, 13
36.39, 7
36.4, 13
36.41, 12
36.42, 17
36.43, 14
36.44, 11
36.45, 14
36.46, 16
36.47, 12
36.48, 15
36.49, 14
36.5, 16
36.51, 27
36.52, 12
36.53, 11
36.54, 16
36.55, 17
36.56, 12
36.57, 12
36.58, 12
36.59, 9
36.6, 14
36.61, 7
36.62, 21
36.63, 14
36.64, 10
36.65, 16
36.66, 9
36.67, 15
36.68, 9
36.69, 14
36.7, 9
36.71, 16
36.72, 8
36.73, 8
36.74, 16
36.75, 15
36.76, 12
36.77, 8
36.78, 12
36.79, 15
36.8, 11
36.81, 14
36.82, 13
36.83, 12
36.84, 12
36.85, 13
36.86, 13
36.87, 15
36.88, 13
36.89, 13
36.9, 7
36.91, 14
36.92, 12
36.93, 6
36.94, 10
36.95, 17
36.96, 11
36.97, 16
36.98, 23
36.99, 19
37, 17
37.01, 22
37.02, 24
37.03, 27
37.04, 47
37.05, 45
37.06, 54
37.07, 55
37.08, 73
37.09, 85
37.1, 103
37.11, 98
37.12, 122
37.13, 117
37.14, 105
37.15, 83
37.16, 63
37.17, 48
37.18, 69
37.19, 65
37.2, 53
37.21, 59
37.22, 68
37.23, 54
37.24, 51
37.25, 46
37.26, 27
37.27, 32
37.28, 12
37.29, 22
37.3, 20
37.31, 21
37.32, 18
37.33, 18
37.34, 11
37.35, 12
37.36, 16
37.37, 9
37.38, 8
37.39, 15
37.4, 18
37.41, 15
37.42, 12
37.43, 9
37.44, 18
37.45, 11
37.46, 15
37.47, 16
37.48, 12
37.49, 9
37.5, 7
37.51, 14
37.52, 11
37.53, 14
37.54, 10
37.55, 15
37.56, 10
37.57, 18
37.58, 12
37.59, 13
37.6, 14
37.61, 10
37.62, 9
37.63, 14
37.64, 11
37.65, 8
37.66, 11
37.67, 12
37.68, 15
37.69, 9
37.7, 12
37.71, 13
37.72, 18
37.73, 17
37.74, 14
37.75, 14
37.76, 12
37.77, 15
37.78, 11
37.79, 16
37.8, 11
37.81, 16
37.82, 7
37.83, 14
37.84, 7
37.85, 13
37.86, 6
37.87, 12
37.88, 9
37.89, 18
37.9, 19
37.91, 14
37.92, 10
37.93, 16
37.94, 18
37.95, 8
37.96, 10
37.97, 8
37.98, 9
37.99, 14
38, 7
38.01, 6
38.02, 15
38.03, 10
38.04, 9
38.05, 13
38.06, 7
38.07, 7
38.08, 4
38.09, 6
38.1, 10
38.11, 10
38.12, 13
38.13, 12
38.14, 6
38.15, 8
38.16, 12
38.17, 8
38.18, 12
38.19, 13
38.2, 17
38.21, 10
38.22, 12
38.23, 17
38.24, 19
38.25, 7
38.26, 16
38.27, 6
38.28, 11
38.29, 13
38.3, 16
38.31, 10
38.32, 13
38.33, 14
38.34, 17
38.35, 6
38.36, 11
38.37, 9
38.38, 18
38.39, 14
38.4, 12
38.41, 11
38.42, 15
38.43, 11
38.44, 15
38.45, 13
38.46, 12
38.47, 18
38.48, 13
38.49, 11
38.5, 12
38.51, 13
38.52, 10
38.53, 14
38.54, 9
38.55, 10
38.56, 9
38.57, 18
38.58, 12
38.59, 11
38.6, 12
38.61, 5
38.62, 10
38.63, 11
38.64, 9
38.65, 15
38.66, 12
38.67, 10
38.68, 12
38.69, 11
38.7, 6
38.71, 8
38.72, 14
38.73, 13
38.74, 9
38.75, 13
38.76, 16
38.77, 11
38.78, 7
38.79, 10
38.8, 11
38.81, 10
38.82, 10
38.83, 14
38.84, 12
38.85, 6
38.86, 11
38.87, 10
38.88, 7
38.89, 13
38.9, 12
38.91, 18
38.92, 11
38.93, 8
38.94, 7
38.95, 10
38.96, 10
38.97, 16
38.98, 10
38.99, 14
39, 8
39.01, 10
39.02, 9
39.03, 14
39.04, 11
39.05, 13
39.06, 15
39.07, 4
39.08, 10
39.09, 13
39.1, 8
39.11, 10
39.12, 11
39.13, 12
39.14, 18
39.15, 11
39.16, 14
39.17, 12
39.18, 10
39.19, 10
39.2, 8
39.21, 11
39.22, 10
39.23, 6
39.24, 13
39.25, 7
39.26, 10
39.27, 12
39.28, 10
39.29, 13
39.3, 11
39.31, 7
39.32, 10
39.33, 14
39.34, 15
39.35, 22
39.36, 11
39.37, 14
39.38, 13
39.39, 12
39.4, 10
39.41, 18
39.42, 13
39.43, 16
39.44, 14
39.45, 16
39.46, 13
39.47, 21
39.48, 10
39.49, 11
39.5, 16
39.51, 11
39.52, 11
39.53, 12
39.54, 13
39.55, 10
39.56, 17
39.57, 17
39.58, 9
39.59, 13
39.6, 12
39.61, 13
39.62, 8
39.63, 19
39.64, 16
39.65, 12
39.66, 5
39.67, 10
39.68, 12
39.69, 8
39.7, 9
39.71, 12
39.72, 19
39.73, 9
39.74, 11
39.75, 11
39.76, 7
39.77, 9
39.78, 14
39.79, 12
39.8, 5
39.81, 9
39.82, 13
39.83, 9
39.84, 6
39.85, 9
39.86, 7
39.87, 16
39.88, 9
39.89, 16
39.9, 8
39.91, 7
39.92, 15
39.93, 4
39.94, 11
39.95, 5
39.96, 9
39.97, 17
39.98, 11
39.99, 16
40, 11
40.01, 18
40.02, 7
40.03, 12
40.04, 7
40.05, 11
40.06, 11
40.07, 13
40.08, 12
40.09, 9
40.1, 14
40.11, 17
40.12, 12
40.13, 11
40.14, 21
40.15, 11
40.16, 8
40.17, 10
40.18, 11
40.19, 7
40.2, 9
40.21, 16
40.22, 12
40.23, 13
40.24, 14
40.25, 15
40.26, 15
40.27, 10
40.28, 11
40.29, 13
40.3, 9
40.31, 15
40.32, 17
40.33, 18
40.34, 12
40.35, 12
40.36, 8
40.37, 9
40.38, 20
40.39, 20
40.4, 14
40.41, 16
40.42, 23
40.43, 18
40.44, 23
40.45, 19
40.46, 27
40.47, 43
40.48, 44
40.49, 52
40.5, 48
40.51, 42
40.52, 88
40.53, 90
40.54, 104
40.55, 92
40.56, 119
40.57, 123
40.58, 113
40.59, 103
40.6, 132
40.61, 97
40.62, 80
40.63, 71
40.64, 57
40.65, 71
40.66, 79
40.67, 70
40.68, 71
40.69, 72
40.7, 51
40.71, 52
40.72, 43
40.73, 37
40.74, 32
40.75, 27
40.76, 21
40.77, 22
40.78, 20
40.79, 18
40.8, 9
40.81, 20
40.82, 15
40.83, 18
40.84, 19
40.85, 17
40.86, 15
40.87, 12
40.88, 11
40.89, 14
40.9, 18
40.91, 7
40.92, 13
40.93, 19
40.94, 13
40.95, 14
40.96, 10
40.97, 10
40.98, 21
40.99, 7
41, 16
41.01, 14
41.02, 4
41.03, 6
41.04, 12
41.05, 12
41.06, 16
41.07, 10
41.08, 11
41.09, 17
41.1, 12
41.11, 14
41.12, 15
41.13, 9
41.14, 11
41.15, 8
41.16, 11
41.17, 11
41.18, 10
41.19, 12
41.2, 11
41.21, 12
41.22, 6
41.23, 14
41.24, 11
41.25, 11
41.26, 9
41.27, 13
41.28, 8
41.29, 12
41.3, 9
41.31, 13
41.32, 14
41.33, 11
41.34, 14
41.35, 15
41.36, 8
41.37, 15
41.38, 12
41.39, 10
41.4, 12
41.41, 14
41.42, 10
41.43, 10
41.44, 11
41.45, 15
41.46, 11
41.47, 11
41.48, 11
41.49, 18
41.5, 12
41.51, 15
41.52, 6
41.53, 8
41.54, 19
41.55, 13
41.56, 12
41.57, 21
41.58, 19
41.59, 20
41.6, 19
41.61, 27
41.62, 23
41.63, 19
41.64, 23
41.65, 38
41.66, 17
41.67, 23
41.68, 29
41.69, 24
41.7, 40
41.71, 30
41.72, 27
41.73, 26
41.74, 19
41.75, 20
41.76, 16
41.77, 15
41.78, 20
41.79, 15
41.8, 19
41.81, 18
41.82, 15
41.83, 20
41.84, 20
41.85, 10
41.86, 10
41.87, 8
41.88, 13
41.89, 16
41.9, 13
41.91, 10
41.92, 6
41.93, 15
41.94, 7
41.95, 6
41.96, 9
41.97, 8
41.98, 8
41.99, 6
42, 8
42.01, 13
42.02, 9
42.03, 10
42.04, 13
42.05, 15
42.06, 10
42.07, 6
42.08, 9
42.09, 10
42.1, 9
42.11, 6
42.12, 9
42.13, 15
42.14, 11
42.15, 11
42.16, 12
42.17, 9
42.18, 8
42.19, 15
42.2, 7
42.21, 12
42.22, 10
42.23, 18
42.24, 20
42.25, 15
42.26, 6
42.27, 8
42.28, 8
42.29, 13
42.3, 12
42.31, 10
42.32, 16
42.33, 7
42.34, 8
42.35, 16
42.36, 11
42.37, 12
42.38, 14
42.39, 15
42.4, 14
42.41, 11
42.42, 10
42.43, 13
42.44, 8
42.45, 11
42.46, 8
42.47, 8
42.48, 11
42.49, 8
42.5, 11
42.51, 16
42.52, 11
42.53, 9
42.54, 10
42.55, 4
42.56, 12
42.57, 11
42.58, 12
42.59, 18
42.6, 7
42.61, 18
42.62, 11
42.63, 15
42.64, 16
42.65, 13
42.66, 5
42.67, 17
42.68, 9
42.69, 17
42.7, 16
42.71, 20
42.72, 12
42.73, 23
42.74, 20
42.75, 27
42.76, 32
42.77, 19
42.78, 15
42.79, 25
42.8, 19
42.81, 32
42.82, 11
42.83, 16
42.84, 13
42.85, 17
42.86, 24
42.87, 18
42.88, 15
42.89, 14
42.9, 15
42.91, 12
42.92, 11
42.93, 13
42.94, 13
42.95, 15
42.96, 19
42.97, 13
42.98, 10
42.99, 18
43, 11
43.01, 11
43.02, 15
43.03, 11
43.04, 11
43.05, 8
43.06, 11
43.07, 15
43.08, 13
43.09, 13
43.1, 5
43.11, 11
43.12, 11
43.13, 17
43.14, 9
43.15, 8
43.16, 13
43.17, 18
43.18, 14
43.19, 6
43.2, 18
43.21, 12
43.22, 15
43.23, 12
43.24, 12
43.25, 8
43.26, 10
43.27, 12
43.28, 16
43.29, 9
43.3, 12
43.31, 10
43.32, 6
43.33, 5
43.34, 14
43.35, 9
43.36, 11
43.37, 10
43.38, 19
43.39, 8
43.4, 11
43.41, 20
43.42, 18
43.43, 9
43.44, 14
43.45, 11
43.46, 13
43.47, 16
43.48, 13
43.49, 16
43.5, 10
43.51, 15
43.52, 18
43.53, 17
43.54, 14
43.55, 13
43.56, 10
43.57, 10
43.58, 16
43.59, 8
43.6, 6
43.61, 11
43.62, 11
43.63, 11
43.64, 8
43.65, 11
43.66, 10
43.67, 12
43.68, 12
43.69, 11
43.7, 15
43.71, 11
43.72, 11
43.73, 18
43.74, 7
43.75, 8
43.76, 17
43.77, 14
43.78, 13
43.79, 15
43.8, 14
43.81, 13
43.82, 10
43.83, 12
43.84, 12
43.85, 9
43.86, 12
43.87, 21
43.88, 18
43.89, 15
43.9, 11
43.91, 10
43.92, 15
43.93, 9
43.94, 12
43.95, 17
43.96, 8
43.97, 11
43.98, 10
43.99, 11
44, 14
44.01, 9
44.02, 11
44.03, 9
44.04, 13
44.05, 12
44.06, 12
44.07, 9
44.08, 8
44.09, 12
44.1, 12
44.11, 8
44.12, 7
44.13, 13
44.14, 8
44.15, 6
44.16, 13
44.17, 9
44.18, 10
44.19, 13
44.2, 12
44.21, 8
44.22, 13
44.23, 13
44.24, 10
44.25, 8
44.26, 15
44.27, 11
44.28, 14
44.29, 6
44.3, 9
44.31, 9
44.32, 9
44.33, 15
44.34, 8
44.35, 8
44.36, 9
44.37, 8
44.38, 11
44.39, 13
44.4, 12
44.41, 8
44.42, 10
44.43, 10
44.44, 3
44.45, 10
44.46, 13
44.47, 9
44.48, 9
44.49, 6
44.5, 11
44.51, 13
44.52, 15
44.53, 10
44.54, 7
44.55, 14
44.56, 12
44.57, 7
44.58, 8
44.59, 11
44.6, 7
44.61, 15
44.62, 13
44.63, 12
44.64, 23
44.65, 19
44.66, 19
44.67, 12
44.68, 14
44.69, 14
44.7, 12
44.71, 16
44.72, 14
44.73, 14
44.74, 13
44.75, 16
44.76, 19
44.77, 23
44.78, 21
44.79, 24
44.8, 22
44.81, 28
44.82, 24
44.83, 27
44.84, 26
44.85, 28
44.86, 24
44.87, 33
44.88, 22
44.89, 13
44.9, 21
44.91, 15
44.92, 26
44.93, 22
44.94, 17
44.95, 19
44.96, 18
44.97, 21
44.98, 13
44.99, 21
45, 15
45.01, 12
45.02, 20
45.03, 12
45.04, 8
45.05, 5
45.06, 19
45.07, 12
45.08, 12
45.09, 16
45.1, 13
45.11, 9
45.12, 15
45.13, 9
45.14, 7
45.15, 9
45.16, 12
45.17, 11
45.18, 14
45.19, 10
45.2, 11
45.21, 4
45.22, 9
45.23, 14
45.24, 10
45.25, 16
45.26, 13
45.27, 13
45.28, 11
45.29, 8
45.3, 11
45.31, 11
45.32, 12
45.33, 10
45.34, 11
45.35, 7
45.36, 11
45.37, 9
45.38, 11
45.39, 15
45.4, 14
45.41, 6
45.42, 17
45.43, 8
45.44, 14
45.45, 11
45.46, 13
45.47, 8
45.48, 13
45.49, 13
45.5, 15
45.51, 7
45.52, 10
45.53, 12
45.54, 12
45.55, 13
45.56, 9
45.57, 8
45.58, 13
45.59, 7
45.6, 18
45.61, 7
45.62, 12
45.63, 8
45.64, 18
45.65, 7
45.66, 8
45.67, 7
45.68, 15
45.69, 10
45.7, 8
45.71, 11
45.72, 6
45.73, 9
45.74, 8
45.75, 8
45.76, 7
45.77, 8
45.78, 4
45.79, 8
45.8, 12
45.81, 11
45.82, 10
45.83, 12
45.84, 10
45.85, 7
45.86, 8
45.87, 6
45.88, 10
45.89, 12
45.9, 10
45.91, 18
45.92, 5
45.93, 9
45.94, 11
45.95, 6
45.96, 5
45.97, 8
45.98, 11
45.99, 15
46, 6
46.01, 7
46.02, 10
46.03, 9
46.04, 12
46.05, 13
46.06, 8
46.07, 11
46.08, 13
46.09, 12
46.1, 7
46.11, 5
46.12, 9
46.13, 7
46.14, 8
46.15, 13
46.16, 13
46.17, 8
46.18, 4
46.19, 5
46.2, 8
46.21, 9
46.22, 6
46.23, 11
46.24, 8
46.25, 15
46.26, 11
46.27, 12
46.28, 12
46.29, 7
46.3, 6
46.31, 13
46.32, 10
46.33, 11
46.34, 9
46.35, 11
46.36, 14
46.37, 11
46.38, 13
46.39, 7
46.4, 10
46.41, 11
46.42, 8
46.43, 10
46.44, 6
46.45, 11
46.46, 15
46.47, 16
46.48, 12
46.49, 9
46.5, 17
46.51, 4
46.52, 10
46.53, 9
46.54, 8
46.55, 4
46.56, 14
46.57, 16
46.58, 9
46.59, 8
46.6, 8
46.61, 8
46.62, 11
46.63, 8
46.64, 9
46.65, 14
46.66, 14
46.67, 7
46.68, 8
46.69, 10
46.7, 13
46.71, 12
46.72, 7
46.73, 14
46.74, 10
46.75, 14
46.76, 16
46.77, 12
46.78, 12
46.79, 16
46.8, 14
46.81, 23
46.82, 20
46.83, 26
46.84, 16
46.85, 18
46.86, 26
46.87, 25
46.88, 27
46.89, 20
46.9, 17
46.91, 17
46.92, 8
46.93, 12
46.94, 9
46.95, 21
46.96, 13
46.97, 27
46.98, 16
46.99, 16
47, 18
47.01, 13
47.02, 21
47.03, 15
47.04, 15
47.05, 15
47.06, 14
47.07, 11
47.08, 12
47.09, 17
47.1, 15
47.11, 9
47.12, 17
47.13, 10
47.14, 12
47.15, 15
47.16, 16
47.17, 21
47.18, 25
47.19, 15
47.2, 27
47.21, 15
47.22, 11
47.23, 9
47.24, 17
47.25, 12
47.26, 26
47.27, 12
47.28, 21
47.29, 17
47.3, 6
47.31, 13
47.32, 20
47.33, 9
47.34, 12
47.35, 12
47.36, 10
47.37, 11
47.38, 19
47.39, 18
47.4, 14
47.41, 12
47.42, 7
47.43, 8
47.44, 13
47.45, 11
47.46, 20
47.47, 12
47.48, 16
47.49, 11
47.5, 11
47.51, 14
47.52, 15
47.53, 11
47.54, 14
47.55, 13
47.56, 10
47.57, 14
47.58, 14
47.59, 16
47.6, 20
47.61, 26
47.62, 19
47.63, 19
47.64, 16
47.65, 14
47.66, 23
47.67, 21
47.68, 20
47.69, 17
47.7, 20
47.71, 38
47.72, 42
47.73, 29
47.74, 41
47.75, 61
47.76, 57
47.77, 74
47.78, 87
47.79, 95
47.8, 120
47.81, 119
47.82, 124
47.83, 152
47.84, 129
47.85, 141
47.86, 122
47.87, 101
47.88, 122
47.89, 92
47.9, 89
47.91, 77
47.92, 66
47.93, 94
47.94, 80
47.95, 91
47.96, 88
47.97, 68
47.98, 72
47.99, 69
48, 55
48.01, 62
48.02, 39
48.03, 36
48.04, 38
48.05, 28
48.06, 13
48.07, 15
48.08, 18
48.09, 30
48.1, 20
48.11, 21
48.12, 21
48.13, 14
48.14, 13
48.15, 17
48.16, 15
48.17, 17
48.18, 13
48.19, 17
48.2, 18
48.21, 12
48.22, 11
48.23, 18
48.24, 12
48.25, 18
48.26, 15
48.27, 14
48.28, 17
48.29, 14
48.3, 19
48.31, 10
48.32, 11
48.33, 13
48.34, 8
48.35, 18
48.36, 14
48.37, 16
48.38, 12
48.39, 12
48.4, 14
48.41, 14
48.42, 14
48.43, 17
48.44, 11
48.45, 12
48.46, 17
48.47, 11
48.48, 13
48.49, 11
48.5, 14
48.51, 14
48.52, 10
48.53, 9
48.54, 16
48.55, 19
48.56, 13
48.57, 17
48.58, 19
48.59, 11
48.6, 23
48.61, 18
48.62, 16
48.63, 16
48.64, 18
48.65, 20
48.66, 17
48.67, 28
48.68, 20
48.69, 19
48.7, 37
48.71, 38
48.72, 36
48.73, 60
48.74, 75
48.75, 78
48.76, 91
48.77, 90
48.78, 75
48.79, 70
48.8, 83
48.81, 90
48.82, 96
48.83, 86
48.84, 67
48.85, 76
48.86, 70
48.87, 58
48.88, 61
48.89, 55
48.9, 58
48.91, 49
48.92, 49
48.93, 61
48.94, 53
48.95, 60
48.96, 46
48.97, 52
48.98, 43
48.99, 31
49, 30
49.01, 21
49.02, 17
49.03, 21
49.04, 20
49.05, 25
49.06, 13
49.07, 18
49.08, 25
49.09, 13
49.1, 7
49.11, 16
49.12, 23
49.13, 16
49.14, 16
49.15, 17
49.16, 17
49.17, 13
49.18, 14
49.19, 13
49.2, 14
49.21, 12
49.22, 10
49.23, 9
49.24, 10
49.25, 12
49.26, 9
49.27, 8
49.28, 11
49.29, 13
49.3, 19
49.31, 14
49.32, 12
49.33, 13
49.34, 14
49.35, 7
49.36, 11
49.37, 13
49.38, 15
49.39, 19
49.4, 11
49.41, 18
49.42, 12
49.43, 7
49.44, 7
49.45, 12
49.46, 14
49.47, 17
49.48, 10
49.49, 12
49.5, 9
49.51, 12
49.52, 7
49.53, 9
49.54, 10
49.55, 12
49.56, 15
49.57, 14
49.58, 7
49.59, 15
49.6, 11
49.61, 11
49.62, 14
49.63, 16
49.64, 13
49.65, 14
49.66, 15
49.67, 8
49.68, 14
49.69, 14
49.7, 14
49.71, 22
49.72, 21
49.73, 16
49.74, 15
49.75, 15
49.76, 26
49.77, 17
49.78, 16
49.79, 22
49.8, 21
49.81, 18
49.82, 21
49.83, 24
49.84, 11
49.85, 16
49.86, 15
49.87, 10
49.88, 24
49.89, 18
49.9, 23
49.91, 15
49.92, 15
49.93, 12
49.94, 17
49.95, 8
49.96, 9
49.97, 7
49.98, 17
49.99, 14
50, 6
50.01, 7
50.02, 7
50.03, 18
50.04, 9
50.05, 11
50.06, 14
50.07, 9
50.08, 15
50.09, 12
50.1, 9
50.11, 11
50.12, 9
50.13, 11
50.14, 21
50.15, 16
50.16, 9
50.17, 10
50.18, 11
50.19, 12
50.2, 17
50.21, 12
50.22, 8
50.23, 7
50.24, 6
50.25, 9
50.26, 13
50.27, 17
50.28, 11
50.29, 9
50.3, 7
50.31, 14
50.32, 11
50.33, 4
50.34, 11
50.35, 20
50.36, 11
50.37, 17
50.38, 10
50.39, 12
50.4, 8
50.41, 12
50.42, 15
50.43, 6
50.44, 13
50.45, 8
50.46, 8
50.47, 13
50.48, 11
50.49, 6
50.5, 13
50.51, 11
50.52, 9
50.53, 13
50.54, 6
50.55, 12
50.56, 13
50.57, 7
50.58, 8
50.59, 10
50.6, 9
50.61, 10
50.62, 15
50.63, 11
50.64, 6
50.65, 9
50.66, 15
50.67, 10
50.68, 13
50.69, 8
50.7, 18
50.71, 10
50.72, 11
50.73, 15
50.74, 12
50.75, 13
50.76, 16
50.77, 7
50.78, 9
50.79, 9
50.8, 10
50.81, 8
50.82, 8
50.83, 14
50.84, 8
50.85, 13
50.86, 10
50.87, 11
50.88, 15
50.89, 9
50.9, 10
50.91, 9
50.92, 11
50.93, 11
50.94, 10
50.95, 14
50.96, 14
50.97, 14
50.98, 4
50.99, 12
51, 12
51.01, 11
51.02, 14
51.03, 9
51.04, 10
51.05, 17
51.06, 4
51.07, 12
51.08, 14
51.09, 8
51.1, 11
51.11, 20
51.12, 10
51.13, 13
51.14, 7
51.15, 12
51.16, 15
51.17, 13
51.18, 10
51.19, 12
51.2, 10
51.21, 5
51.22, 7
51.23, 11
51.24, 12
51.25, 12
51.26, 6
51.27, 17
51.28, 12
51.29, 9
51.3, 10
51.31, 2
51.32, 11
51.33, 16
51.34, 9
51.35, 15
51.36, 14
51.37, 10
51.38, 12
51.39, 16
51.4, 17
51.41, 6
51.42, 5
51.43, 11
51.44, 15
51.45, 7
51.46, 11
51.47, 13
51.48, 12
51.49, 8
51.5, 8
51.51, 9
51.52, 14
51.53, 15
51.54, 11
51.55, 11
51.56, 15
51.57, 13
51.58, 12
51.59, 7
51.6, 11
51.61, 9
51.62, 11
51.63, 9
51.64, 8
51.65, 10
51.66, 5
51.67, 18
51.68, 17
51.69, 7
51.7, 11
51.71, 12
51.72, 13
51.73, 6
51.74, 7
51.75, 15
51.76, 15
51.77, 9
51.78, 13
51.79, 13
51.8, 11
51.81, 14
51.82, 15
51.83, 9
51.84, 9
51.85, 11
51.86, 9
51.87, 16
51.88, 12
51.89, 2
51.9, 11
51.91, 12
51.92, 13
51.93, 6
51.94, 10
51.95, 7
51.96, 10
51.97, 8
51.98, 14
51.99, 11
52, 12
52.01, 11
52.02, 12
52.03, 10
52.04, 14
52.05, 4
52.06, 19
52.07, 12
52.08, 13
52.09, 7
52.1, 5
52.11, 11
52.12, 4
52.13, 15
52.14, 11
52.15, 17
52.16, 12
52.17, 11
52.18, 14
52.19, 12
52.2, 13
52.21, 15
52.22, 14
52.23, 17
52.24, 14
52.25, 10
52.26, 18
52.27, 17
52.28, 15
52.29, 15
52.3, 28
52.31, 18
52.32, 25
52.33, 18
52.34, 21
52.35, 18
52.36, 29
52.37, 21
52.38, 24
52.39, 31
52.4, 41
52.41, 45
52.42, 60
52.43, 63
52.44, 57
52.45, 74
52.46, 92
52.47, 102
52.48, 111
52.49, 143
52.5, 168
52.51, 186
52.52, 178
52.53, 183
52.54, 204
52.55, 217
52.56, 175
52.57, 167
52.58, 179
52.59, 166
52.6, 146
52.61, 164
52.62, 130
52.63, 136
52.64, 131
52.65, 128
52.66, 123
52.67, 112
52.68, 104
52.69, 106
52.7, 96
52.71, 101
52.72, 99
52.73, 72
52.74, 70
52.75, 59
52.76, 61
52.77, 48
52.78, 38
52.79, 31
52.8, 34
52.81, 25
52.82, 18
52.83, 21
52.84, 17
52.85, 15
52.86, 18
52.87, 17
52.88, 11
52.89, 22
52.9, 21
52.91, 12
52.92, 19
52.93, 19
52.94, 12
52.95, 17
52.96, 11
52.97, 16
52.98, 13
52.99, 12
53, 10
53.01, 10
53.02, 11
53.03, 18
53.04, 9
53.05, 14
53.06, 10
53.07, 12
53.08, 10
53.09, 23
53.1, 16
53.11, 10
53.12, 10
53.13, 11
53.14, 13
53.15, 15
53.16, 16
53.17, 7
53.18, 8
53.19, 15
53.2, 11
53.21, 9
53.22, 16
53.23, 13
53.24, 14
53.25, 17
53.26, 17
53.27, 20
53.28, 18
53.29, 14
53.3, 16
53.31, 22
53.32, 16
53.33, 20
53.34, 28
53.35, 28
53.36, 29
53.37, 35
53.38, 29
53.39, 31
53.4, 51
53.41, 44
53.42, 50
53.43, 33
53.44, 46
53.45, 54
53.46, 36
53.47, 41
53.48, 54
53.49, 37
53.5, 47
53.51, 53
53.52, 47
53.53, 40
53.54, 52
53.55, 45
53.56, 35
53.57, 27
53.58, 39
53.59, 23
53.6, 35
53.61, 30
53.62, 30
53.63, 25
53.64, 20
53.65, 27
53.66, 19
53.67, 21
53.68, 20
53.69, 16
53.7, 16
53.71, 18
53.72, 14
53.73, 9
53.74, 8
53.75, 11
53.76, 15
53.77, 12
53.78, 20
53.79, 9
53.8, 12
53.81, 17
53.82, 13
53.83, 9
53.84, 11
53.85, 8
53.86, 16
53.87, 7
53.88, 12
53.89, 13
53.9, 5
53.91, 8
53.92, 7
53.93, 12
53.94, 9
53.95, 10
53.96, 14
53.97, 16
53.98, 10
53.99, 11
54, 9
54.01, 13
54.02, 17
54.03, 16
54.04, 14
54.05, 16
54.06, 17
54.07, 5
54.08, 12
54.09, 10
54.1, 11
54.11, 13
54.12, 15
54.13, 17
54.14, 13
54.15, 19
54.16, 11
54.17, 15
54.18, 17
54.19, 19
54.2, 20
54.21, 22
54.22, 30
54.23, 33
54.24, 27
54.25, 30
54.26, 36
54.27, 42
54.28, 53
54.29, 64
54.3, 52
54.31, 86
54.32, 88
54.33, 87
54.34, 96
54.35, 93
54.36, 69
54.37, 77
54.38, 64
54.39, 54
54.4, 73
54.41, 53
54.42, 78
54.43, 46
54.44, 46
54.45, 52
54.46, 64
54.47, 57
54.48, 54
54.49, 53
54.5, 55
54.51, 46
54.52, 44
54.53, 33
54.54, 29
54.55, 35
54.56, 33
54.57, 19
54.58, 26
54.59, 21
54.6, 19
54.61, 15
54.62, 13
54.63, 18
54.64, 19
54.65, 13
54.66, 13
54.67, 8
54.68, 11
54.69, 5
54.7, 19
54.71, 8
54.72, 6
54.73, 7
54.74, 17
54.75, 10
54.76, 9
54.77, 10
54.78, 16
54.79, 15
54.8, 7
54.81, 13
54.82, 17
54.83, 17
54.84, 10
54.85, 14
54.86, 14
54.87, 10
54.88, 3
54.89, 14
54.9, 12
54.91, 6
54.92, 9
54.93, 9
54.94, 16
54.95, 8
54.96, 12
54.97, 9
54.98, 17
54.99, 11
55, 9
55.01, 9
55.02, 12
55.03, 10
55.04, 15
55.05, 17
55.06, 13
55.07, 7
55.08, 8
55.09, 13
55.1, 12
55.11, 15
55.12, 13
55.13, 16
55.14, 20
55.15, 11
55.16, 18
55.17, 17
55.18, 20
55.19, 25
55.2, 35
55.21, 27
55.22, 27
55.23, 28
55.24, 28
55.25, 31
55.26, 33
55.27, 26
55.28, 24
55.29, 30
55.3, 15
55.31, 22
55.32, 27
55.33, 21
55.34, 28
55.35, 18
55.36, 25
55.37, 30
55.38, 21
55.39, 21
55.4, 24
55.41, 20
55.42, 14
55.43, 9
55.44, 17
55.45, 18
55.46, 16
55.47, 18
55.48, 12
55.49, 7
55.5, 12
55.51, 10
55.52, 14
55.53, 13
55.54, 8
55.55, 7
55.56, 13
55.57, 9
55.58, 18
55.59, 13
55.6, 14
55.61, 10
55.62, 11
55.63, 6
55.64, 12
55.65, 9
55.66, 11
55.67, 7
55.68, 20
55.69, 9
55.7, 9
55.71, 11
55.72, 11
55.73, 7
55.74, 14
55.75, 16
55.76, 7
55.77, 11
55.78, 13
55.79, 10
55.8, 13
55.81, 13
55.82, 12
55.83, 9
55.84, 12
55.85, 14
55.86, 13
55.87, 7
55.88, 5
55.89, 13
55.9, 6
55.91, 7
55.92, 11
55.93, 9
55.94, 6
55.95, 16
55.96, 9
55.97, 13
55.98, 13
55.99, 13
56, 13
56.01, 8
56.02, 6
56.03, 18
56.04, 6
56.05, 12
56.06, 14
56.07, 11
56.08, 16
56.09, 12
56.1, 9
56.11, 17
56.12, 11
56.13, 11
56.14, 8
56.15, 7
56.16, 8
56.17, 15
56.18, 7
56.19, 9
56.2, 6
56.21, 10
56.22, 9
56.23, 8
56.24, 10
56.25, 13
56.26, 6
56.27, 12
56.28, 12
56.29, 7
56.3, 14
56.31, 15
56.32, 10
56.33, 13
56.34, 8
56.35, 13
56.36, 12
56.37, 11
56.38, 3
56.39, 9
56.4, 13
56.41, 6
56.42, 11
56.43, 16
56.44, 9
56.45, 6
56.46, 8
56.47, 16
56.48, 9
56.49, 8
56.5, 9
56.51, 11
56.52, 11
56.53, 8
56.54, 16
56.55, 11
56.56, 6
56.57, 12
56.58, 13
56.59, 7
56.6, 8
56.61, 8
56.62, 17
56.63, 21
56.64, 11
56.65, 9
56.66, 13
56.67, 9
56.68, 7
56.69, 12
56.7, 7
56.71, 16
56.72, 5
56.73, 5
56.74, 11
56.75, 7
56.76, 14
56.77, 5
56.78, 11
56.79, 7
56.8, 10
56.81, 10
56.82, 10
56.83, 10
56.84, 15
56.85, 19
56.86, 27
56.87, 12
56.88, 17
56.89, 25
56.9, 22
56.91, 19
56.92, 23
56.93, 39
56.94, 21
56.95, 27
56.96, 34
56.97, 37
56.98, 33
56.99, 37
57, 25
57.01, 25
57.02, 33
57.03, 26
57.04, 23
57.05, 19
57.06, 22
57.07, 25
57.08, 20
57.09, 15
57.1, 27
57.11, 15
57.12, 20
57.13, 24
57.14, 22
57.15, 18
57.16, 18
57.17, 24
57.18, 16
57.19, 15
57.2, 18
57.21, 17
57.22, 12
57.23, 15
57.24, 13
57.25, 15
57.26, 17
57.27, 16
57.28, 9
57.29, 8
57.3, 5
57.31, 16
57.32, 10
57.33, 8
57.34, 8
57.35, 10
57.36, 14
57.37, 15
57.38, 7
57.39, 9
57.4, 15
57.41, 14
57.42, 6
57.43, 14
57.44, 10
57.45, 11
57.46, 9
57.47, 12
57.48, 16
57.49, 8
57.5, 19
57.51, 12
57.52, 18
57.53, 17
57.54, 18
57.55, 24
57.56, 12
57.57, 14
57.58, 20
57.59, 16
57.6, 13
57.61, 13
57.62, 11
57.63, 16
57.64, 12
57.65, 12
57.66, 18
57.67, 16
57.68, 9
57.69, 26
57.7, 26
57.71, 40
57.72, 33
57.73, 33
57.74, 39
57.75, 34
57.76, 51
57.77, 41
57.78, 44
57.79, 46
57.8, 54
57.81, 71
57.82, 65
57.83, 67
57.84, 53
57.85, 68
57.86, 50
57.87, 47
57.88, 40
57.89, 51
57.9, 42
57.91, 37
57.92, 39
57.93, 47
57.94, 41
57.95, 38
57.96, 32
57.97, 36
57.98, 32
57.99, 24
58, 35
58.01, 44
58.02, 30
58.03, 37
58.04, 27
58.05, 25
58.06, 18
58.07, 17
58.08, 21
58.09, 23
58.1, 20
58.11, 11
58.12, 10
58.13, 10
58.14, 15
58.15, 10
58.16, 15
58.17, 14
58.18, 11
58.19, 16
58.2, 9
58.21, 7
58.22, 10
58.23, 14
58.24, 11
58.25, 13
58.26, 15
58.27, 8
58.28, 17
58.29, 6
58.3, 10
58.31, 12
58.32, 7
58.33, 6
58.34, 6
58.35, 7
58.36, 9
58.37, 5
58.38, 9
58.39, 9
58.4, 5
58.41, 9
58.42, 15
58.43, 8
58.44, 11
58.45, 10
58.46, 9
58.47, 12
58.48, 10
58.49, 15
58.5, 7
58.51, 10
58.52, 13
58.53, 8
58.54, 7
58.55, 8
58.56, 9
58.57, 9
58.58, 12
58.59, 12
58.6, 9
58.61, 21
58.62, 6
58.63, 7
58.64, 5
58.65, 8
58.66, 5
58.67, 14
58.68, 12
58.69, 13
58.7, 13
58.71, 11
58.72, 8
58.73, 9
58.74, 7
58.75, 9
58.76, 16
58.77, 12
58.78, 8
58.79, 8
58.8, 10
58.81, 10
58.82, 9
58.83, 7
58.84, 10
58.85, 4
58.86, 9
58.87, 9
58.88, 10
58.89, 7
58.9, 9
58.91, 10
58.92, 14
58.93, 15
58.94, 10
58.95, 7
58.96, 4
58.97, 9
58.98, 12
58.99, 9
59, 7
59.01, 17
59.02, 11
59.03, 10
59.04, 4
59.05, 12
59.06, 10
59.07, 7
59.08, 11
59.09, 8
59.1, 9
59.11, 9
59.12, 9
59.13, 11
59.14, 11
59.15, 4
59.16, 8
59.17, 8
59.18, 10
59.19, 9
59.2, 6
59.21, 9
59.22, 14
59.23, 10
59.24, 4
59.25, 4
59.26, 12
59.27, 18
59.28, 9
59.29, 10
59.3, 11
59.31, 5
59.32, 10
59.33, 15
59.34, 9
59.35, 11
59.36, 10
59.37, 14
59.38, 10
59.39, 13
59.4, 6
59.41, 9
59.42, 10
59.43, 8
59.44, 6
59.45, 4
59.46, 8
59.47, 16
59.48, 8
59.49, 13
59.5, 13
59.51, 9
59.52, 10
59.53, 8
59.54, 6
59.55, 9
59.56, 14
59.57, 9
59.58, 8
59.59, 12
59.6, 14
59.61, 5
59.62, 11
59.63, 5
59.64, 8
59.65, 7
59.66, 8
59.67, 8
59.68, 10
59.69, 11
59.7, 7
59.71, 6
59.72, 15
59.73, 7
59.74, 10
59.75, 7
59.76, 6
59.77, 12
59.78, 6
59.79, 8
59.8, 9
59.81, 6
59.82, 7
59.83, 7
59.84, 10
59.85, 6
59.86, 4
59.87, 8
59.88, 10
59.89, 12
59.9, 13
59.91, 7
59.92, 11
59.93, 4
59.94, 11
59.95, 15
59.96, 12
59.97, 7
59.98, 12
59.99, 6
60, 10
60.01, 5
60.02, 9
60.03, 9
60.04, 9
60.05, 7
60.06, 10
60.07, 13
60.08, 11
60.09, 7
60.1, 5
60.11, 16
60.12, 9
60.13, 12
60.14, 14
60.15, 9
60.16, 7
60.17, 13
60.18, 6
60.19, 7
60.2, 14
60.21, 10
60.22, 8
60.23, 11
60.24, 1
60.25, 18
60.26, 11
60.27, 10
60.28, 8
60.29, 10
60.3, 15
60.31, 12
60.32, 11
60.33, 12
60.34, 8
60.35, 15
60.36, 9
60.37, 15
60.38, 14
60.39, 12
60.4, 9
60.41, 10
60.42, 10
60.43, 13
60.44, 14
60.45, 7
60.46, 9
60.47, 14
60.48, 13
60.49, 9
60.5, 11
60.51, 10
60.52, 10
60.53, 12
60.54, 9
60.55, 11
60.56, 14
60.57, 11
60.58, 13
60.59, 18
60.6, 10
60.61, 13
60.62, 13
60.63, 9
60.64, 9
60.65, 10
60.66, 12
60.67, 11
60.68, 5
60.69, 8
60.7, 10
60.71, 6
60.72, 14
60.73, 13
60.74, 12
60.75, 8
60.76, 11
60.77, 13
60.78, 4
60.79, 13
60.8, 9
60.81, 7
60.82, 6
60.83, 13
60.84, 8
60.85, 3
60.86, 10
60.87, 11
60.88, 9
60.89, 9
60.9, 13
60.91, 11
60.92, 12
60.93, 10
60.94, 8
60.95, 7
60.96, 7
60.97, 10
60.98, 8
60.99, 8
61, 10
61.01, 11
61.02, 14
61.03, 12
61.04, 11
61.05, 5
61.06, 5
61.07, 11
61.08, 10
61.09, 10
61.1, 5
61.11, 5
61.12, 3
61.13, 12
61.14, 11
61.15, 14
61.16, 10
61.17, 11
61.18, 10
61.19, 11
61.2, 13
61.21, 6
61.22, 10
61.23, 14
61.24, 3
61.25, 10
61.26, 9
61.27, 5
61.28, 11
61.29, 11
61.3, 11
61.31, 7
61.32, 10
61.33, 10
61.34, 6
61.35, 9
61.36, 11
61.37, 15
61.38, 9
61.39, 13
61.4, 10
61.41, 8
61.42, 10
61.43, 6
61.44, 10
61.45, 11
61.46, 12
61.47, 7
61.48, 9
61.49, 8
61.5, 4
61.51, 7
61.52, 8
61.53, 5
61.54, 14
61.55, 12
61.56, 9
61.57, 11
61.58, 8
61.59, 8
61.6, 9
61.61, 9
61.62, 11
61.63, 5
61.64, 5
61.65, 6
61.66, 14
61.67, 8
61.68, 15
61.69, 11
61.7, 9
61.71, 8
61.72, 8
61.73, 10
61.74, 11
61.75, 16
61.76, 11
61.77, 10
61.78, 10
61.79, 15
61.8, 8
61.81, 15
61.82, 11
61.83, 9
61.84, 15
61.85, 9
61.86, 11
61.87, 16
61.88, 15
61.89, 18
61.9, 19
61.91, 12
61.92, 23
61.93, 27
61.94, 17
61.95, 37
61.96, 34
61.97, 19
61.98, 28
61.99, 31
62, 35
62.01, 36
62.02, 25
62.03, 20
62.04, 18
62.05, 20
62.06, 21
62.07, 19
62.08, 20
62.09, 13
62.1, 13
62.11, 17
62.12, 24
62.13, 21
62.14, 20
62.15, 20
62.16, 20
62.17, 23
62.18, 18
62.19, 9
62.2, 23
62.21, 23
62.22, 9
62.23, 21
62.24, 8
62.25, 12
62.26, 15
62.27, 17
62.28, 12
62.29, 10
62.3, 11
62.31, 8
62.32, 11
62.33, 9
62.34, 10
62.35, 9
62.36, 8
62.37, 12
62.38, 10
62.39, 16
62.4, 14
62.41, 10
62.42, 8
62.43, 13
62.44, 10
62.45, 10
62.46, 11
62.47, 7
62.48, 12
62.49, 5
62.5, 9
62.51, 9
62.52, 13
62.53, 13
62.54, 13
62.55, 7
62.56, 6
62.57, 7
62.58, 14
62.59, 9
62.6, 8
62.61, 17
62.62, 16
62.63, 12
62.64, 13
62.65, 11
62.66, 14
62.67, 15
62.68, 15
62.69, 29
62.7, 18
62.71, 26
62.72, 18
62.73, 35
62.74, 32
62.75, 39
62.76, 26
62.77, 28
62.78, 48
62.79, 37
62.8, 33
62.81, 44
62.82, 23
62.83, 35
62.84, 44
62.85, 30
62.86, 29
62.87, 28
62.88, 31
62.89, 30
62.9, 26
62.91, 29
62.92, 36
62.93, 28
62.94, 30
62.95, 27
62.96, 27
62.97, 39
62.98, 28
62.99, 24
63, 27
63.01, 20
63.02, 22
63.03, 21
63.04, 22
63.05, 19
63.06, 17
63.07, 20
63.08, 18
63.09, 17
63.1, 23
63.11, 10
63.12, 16
63.13, 9
63.14, 13
63.15, 13
63.16, 11
63.17, 16
63.18, 15
63.19, 12
63.2, 13
63.21, 11
63.22, 17
63.23, 12
63.24, 9
63.25, 8
63.26, 17
63.27, 11
63.28, 14
63.29, 5
63.3, 9
63.31, 8
63.32, 6
63.33, 8
63.34, 4
63.35, 9
63.36, 11
63.37, 17
63.38, 9
63.39, 10
63.4, 11
63.41, 5
63.42, 9
63.43, 10
63.44, 11
63.45, 11
63.46, 13
63.47, 13
63.48, 8
63.49, 10
63.5, 14
63.51, 6
63.52, 10
63.53, 15
63.54, 15
63.55, 20
63.56, 18
63.57, 19
63.58, 22
63.59, 23
63.6, 30
63.61, 31
63.62, 15
63.63, 27
63.64, 28
63.65, 32
63.66, 22
63.67, 17
63.68, 26
63.69, 14
63.7, 9
63.71, 13
63.72, 21
63.73, 12
63.74, 25
63.75, 12
63.76, 16
63.77, 13
63.78, 17
63.79, 17
63.8, 10
63.81, 16
63.82, 11
63.83, 9
63.84, 21
63.85, 20
63.86, 16
63.87, 10
63.88, 15
63.89, 16
63.9, 11
63.91, 14
63.92, 9
63.93, 7
63.94, 9
63.95, 8
63.96, 10
63.97, 4
63.98, 10
63.99, 7
64, 8
64.01, 8
64.02, 9
64.03, 11
64.04, 7
64.05, 5
64.06, 5
64.07, 10
64.08, 6
64.09, 7
64.1, 9
64.11, 3
64.12, 10
64.13, 5
64.14, 5
64.15, 9
64.16, 9
64.17, 8
64.18, 9
64.19, 4
64.2, 5
64.21, 14
64.22, 10
64.23, 11
64.24, 10
64.25, 7
64.26, 12
64.27, 8
64.28, 17
64.29, 9
64.3, 12
64.31, 12
64.32, 9
64.33, 13
64.34, 16
64.35, 11
64.36, 24
64.37, 21
64.38, 19
64.39, 20
64.4, 22
64.41, 20
64.42, 15
64.43, 37
64.44, 29
64.45, 19
64.46, 22
64.47, 27
64.48, 26
64.49, 26
64.5, 20
64.51, 22
64.52, 16
64.53, 14
64.54, 20
64.55, 19
64.56, 15
64.57, 16
64.58, 20
64.59, 16
64.6, 20
64.61, 20
64.62, 15
64.63, 12
64.64, 21
64.65, 12
64.66, 12
64.67, 15
64.68, 13
64.69, 14
64.7, 14
64.71, 8
64.72, 10
64.73, 12
64.74, 4
64.75, 5
64.76, 9
64.77, 11
64.78, 3
64.79, 6
64.8, 13
64.81, 7
64.82, 14
64.83, 12
64.84, 13
64.85, 7
64.86, 17
64.87, 8
64.88, 7
64.89, 11
64.9, 10
64.91, 10
64.92, 8
64.93, 11
64.94, 8
64.95, 6
64.96, 14
64.97, 5
64.98, 13
64.99, 12
65, 10
65.01, 16
65.02, 7
65.03, 9
65.04, 6
65.05, 14
65.06, 6
65.07, 6
65.08, 7
65.09, 16
65.1, 8
65.11, 2
65.12, 10
65.13, 9
65.14, 12
65.15, 9
65.16, 9
65.17, 10
65.18, 13
65.19, 10
65.2, 10
65.21, 10
65.22, 9
65.23, 7
65.24, 6
65.25, 11
65.26, 9
65.27, 15
65.28, 12
65.29, 9
65.3, 10
65.31, 7
65.32, 10
65.33, 8
65.34, 11
65.35, 8
65.36, 7
65.37, 5
65.38, 11
65.39, 12
65.4, 6
65.41, 10
65.42, 14
65.43, 18
65.44, 11
65.45, 7
65.46, 7
65.47, 5
65.48, 6
65.49, 6
65.5, 7
65.51, 12
65.52, 8
65.53, 9
65.54, 14
65.55, 11
65.56, 11
65.57, 13
65.58, 10
65.59, 11
65.6, 22
65.61, 17
65.62, 14
65.63, 3
65.64, 20
65.65, 12
65.66, 12
65.67, 22
65.68, 8
65.69, 21
65.7, 8
65.71, 13
65.72, 8
65.73, 9
65.74, 14
65.75, 7
65.76, 12
65.77, 16
65.78, 13
65.79, 15
65.8, 13
65.81, 13
65.82, 10
65.83, 15
65.84, 12
65.85, 27
65.86, 20
65.87, 20
65.88, 18
65.89, 26
65.9, 25
65.91, 40
65.92, 28
65.93, 43
65.94, 50
65.95, 44
65.96, 65
65.97, 46
65.98, 43
65.99, 62
66, 51
66.01, 65
66.02, 70
66.03, 76
66.04, 61
66.05, 80
66.06, 47
66.07, 69
66.08, 54
66.09, 65
66.1, 53
66.11, 37
66.12, 46
66.13, 43
66.14, 45
66.15, 41
66.16, 47
66.17, 41
66.18, 41
66.19, 41
66.2, 32
66.21, 36
66.22, 40
66.23, 45
66.24, 42
66.25, 40
66.26, 40
66.27, 21
66.28, 35
66.29, 27
66.3, 21
66.31, 21
66.32, 21
66.33, 18
66.34, 24
66.35, 15
66.36, 11
66.37, 17
66.38, 13
66.39, 13
66.4, 21
66.41, 5
66.42, 13
66.43, 13
66.44, 13
66.45, 16
66.46, 14
66.47, 10
66.48, 17
66.49, 11
66.5, 9
66.51, 15
66.52, 8
66.53, 8
66.54, 14
66.55, 15
66.56, 4
66.57, 4
66.58, 9
66.59, 17
66.6, 9
66.61, 10
66.62, 12
66.63, 10
66.64, 14
66.65, 12
66.66, 5
66.67, 12
66.68, 8
66.69, 15
66.7, 11
66.71, 17
66.72, 10
66.73, 16
66.74, 15
66.75, 15
66.76, 12
66.77, 19
66.78, 17
66.79, 8
66.8, 14
66.81, 17
66.82, 18
66.83, 11
66.84, 9
66.85, 9
66.86, 10
66.87, 16
66.88, 15
66.89, 10
66.9, 14
66.91, 14
66.92, 14
66.93, 8
66.94, 12
66.95, 13
66.96, 14
66.97, 10
66.98, 13
66.99, 12
67, 15
67.01, 7
67.02, 12
67.03, 17
67.04, 13
67.05, 12
67.06, 7
67.07, 7
67.08, 5
67.09, 16
67.1, 16
67.11, 13
67.12, 11
67.13, 8
67.14, 11
67.15, 8
67.16, 9
67.17, 7
67.18, 10
67.19, 13
67.2, 9
67.21, 7
67.22, 11
67.23, 8
67.24, 19
67.25, 14
67.26, 13
67.27, 12
67.28, 11
67.29, 15
67.3, 6
67.31, 17
67.32, 12
67.33, 10
67.34, 10
67.35, 13
67.36, 7
67.37, 9
67.38, 16
67.39, 9
67.4, 9
67.41, 10
67.42, 5
67.43, 10
67.44, 11
67.45, 9
67.46, 7
67.47, 12
67.48, 8
67.49, 20
67.5, 16
67.51, 17
67.52, 14
67.53, 15
67.54, 13
67.55, 13
67.56, 19
67.57, 14
67.58, 25
67.59, 21
67.6, 14
67.61, 22
67.62, 19
67.63, 21
67.64, 23
67.65, 20
67.66, 18
67.67, 14
67.68, 17
67.69, 21
67.7, 10
67.71, 16
67.72, 18
67.73, 14
67.74, 12
67.75, 16
67.76, 21
67.77, 14
67.78, 19
67.79, 10
67.8, 20
67.81, 11
67.82, 10
67.83, 12
67.84, 12
67.85, 12
67.86, 17
67.87, 15
67.88, 13
67.89, 9
67.9, 18
67.91, 10
67.92, 21
67.93, 14
67.94, 6
67.95, 10
67.96, 8
67.97, 8
67.98, 13
67.99, 6
68, 12
68.01, 4
68.02, 11
68.03, 9
68.04, 13
68.05, 9
68.06, 8
68.07, 16
68.08, 13
68.09, 9
68.1, 11
68.11, 9
68.12, 11
68.13, 8
68.14, 9
68.15, 15
68.16, 8
68.17, 12
68.18, 19
68.19, 12
68.2, 9
68.21, 13
68.22, 11
68.23, 18
68.24, 15
68.25, 17
68.26, 16
68.27, 22
68.28, 27
68.29, 29
68.3, 22
68.31, 32
68.32, 25
68.33, 32
68.34, 20
68.35, 31
68.36, 30
68.37, 34
68.38, 28
68.39, 26
68.4, 43
68.41, 24
68.42, 28
68.43, 29
68.44, 23
68.45, 28
68.46, 36
68.47, 23
68.48, 31
68.49, 22
68.5, 28
68.51, 25
68.52, 24
68.53, 25
68.54, 24
68.55, 17
68.56, 18
68.57, 20
68.58, 17
68.59, 26
68.6, 15
68.61, 23
68.62, 19
68.63, 22
68.64, 16
68.65, 10
68.66, 14
68.67, 13
68.68, 16
68.69, 17
68.7, 13
68.71, 4
68.72, 17
68.73, 12
68.74, 14
68.75, 14
68.76, 14
68.77, 12
68.78, 14
68.79, 14
68.8, 7
68.81, 9
68.82, 19
68.83, 12
68.84, 11
68.85, 12
68.86, 17
68.87, 21
68.88, 16
68.89, 15
68.9, 10
68.91, 9
68.92, 11
68.93, 23
68.94, 13
68.95, 17
68.96, 26
68.97, 18
68.98, 19
68.99, 22
69, 19
69.01, 30
69.02, 33
69.03, 36
69.04, 35
69.05, 47
69.06, 49
69.07, 60
69.08, 55
69.09, 58
69.1, 73
69.11, 65
69.12, 90
69.13, 98
69.14, 99
69.15, 75
69.16, 97
69.17, 77
69.18, 86
69.19, 68
69.2, 74
69.21, 55
69.22, 51
69.23, 41
69.24, 36
69.25, 39
69.26, 48
69.27, 35
69.28, 47
69.29, 42
69.3, 41
69.31, 67
69.32, 55
69.33, 60
69.34, 52
69.35, 56
69.36, 50
69.37, 43
69.38, 52
69.39, 35
69.4, 31
69.41, 34
69.42, 37
69.43, 19
69.44, 30
69.45, 22
69.46, 22
69.47, 20
69.48, 13
69.49, 20
69.5, 15
69.51, 23
69.52, 10
69.53, 16
69.54, 18
69.55, 26
69.56, 10
69.57, 14
69.58, 14
69.59, 12
69.6, 14
69.61, 7
69.62, 14
69.63, 12
69.64, 9
69.65, 8
69.66, 13
69.67, 16
69.68, 8
69.69, 15
69.7, 13
69.71, 15
69.72, 12
69.73, 12
69.74, 11
69.75, 14
69.76, 12
69.77, 16
69.78, 10
69.79, 12
69.8, 13
69.81, 13
69.82, 9
69.83, 11
69.84, 11
69.85, 11
69.86, 13
69.87, 16
69.88, 19
69.89, 15
69.9, 13
69.91, 14
69.92, 16
69.93, 20
69.94, 18
69.95, 14
69.96, 16
69.97, 18
69.98, 8
69.99, 15
70, 7
70.01, 9
70.02, 14
70.03, 15
70.04, 9
70.05, 14
70.06, 16
70.07, 16
70.08, 9
70.09, 10
70.1, 19
70.11, 15
70.12, 13
70.13, 11
70.14, 15
70.15, 16
70.16, 19
70.17, 9
70.18, 12
70.19, 10
70.2, 9
70.21, 11
70.22, 15
70.23, 14
70.24, 8
70.25, 10
70.26, 5
70.27, 9
70.28, 6
70.29, 9
70.3, 14
70.31, 10
70.32, 9
70.33, 9
70.34, 8
70.35, 9
70.36, 8
70.37, 7
70.38, 11
70.39, 10
70.4, 10
70.41, 10
70.42, 9
70.43, 10
70.44, 7
70.45, 8
70.46, 13
70.47, 7
70.48, 13
70.49, 8
70.5, 12
70.51, 6
70.52, 5
70.53, 5
70.54, 10
70.55, 16
70.56, 7
70.57, 14
70.58, 5
70.59, 18
70.6, 7
70.61, 9
70.62, 7
70.63, 8
70.64, 11
70.65, 9
70.66, 9
70.67, 12
70.68, 13
70.69, 9
70.7, 10
70.71, 14
70.72, 9
70.73, 10
70.74, 12
70.75, 6
70.76, 8
70.77, 12
70.78, 8
70.79, 9
70.8, 14
70.81, 11
70.82, 9
70.83, 14
70.84, 6
70.85, 8
70.86, 16
70.87, 6
70.88, 13
70.89, 11
70.9, 12
70.91, 8
70.92, 8
70.93, 8
70.94, 8
70.95, 9
70.96, 12
70.97, 13
70.98, 13
70.99, 11
71, 6
71.01, 13
71.02, 10
71.03, 7
71.04, 13
71.05, 11
71.06, 10
71.07, 12
71.08, 10
71.09, 11
71.1, 4
71.11, 9
71.12, 9
71.13, 8
71.14, 4
71.15, 6
71.16, 6
71.17, 4
71.18, 10
71.19, 9
71.2, 9
71.21, 12
71.22, 14
71.23, 11
71.24, 9
71.25, 14
71.26, 10
71.27, 6
71.28, 11
71.29, 5
71.3, 7
71.31, 10
71.32, 5
71.33, 9
71.34, 15
71.35, 13
71.36, 12
71.37, 10
71.38, 9
71.39, 12
71.4, 6
71.41, 8
71.42, 13
71.43, 7
71.44, 10
71.45, 10
71.46, 6
71.47, 10
71.48, 8
71.49, 17
71.5, 15
71.51, 9
71.52, 8
71.53, 11
71.54, 8
71.55, 7
71.56, 5
71.57, 5
71.58, 15
71.59, 7
71.6, 10
71.61, 10
71.62, 8
71.63, 11
71.64, 8
71.65, 7
71.66, 7
71.67, 8
71.68, 11
71.69, 11
71.7, 13
71.71, 8
71.72, 6
71.73, 6
71.74, 17
71.75, 4
71.76, 15
71.77, 11
71.78, 11
71.79, 7
71.8, 12
71.81, 9
71.82, 11
71.83, 14
71.84, 16
71.85, 7
71.86, 13
71.87, 9
71.88, 8
71.89, 8
71.9, 13
71.91, 9
71.92, 9
71.93, 7
71.94, 9
71.95, 11
71.96, 10
71.97, 12
71.98, 9
71.99, 10
72, 12
72.01, 10
72.02, 12
72.03, 13
72.04, 8
72.05, 14
72.06, 12
72.07, 23
72.08, 18
72.09, 20
72.1, 11
72.11, 17
72.12, 19
72.13, 28
72.14, 16
72.15, 22
72.16, 32
72.17, 36
72.18, 34
72.19, 40
72.2, 26
72.21, 39
72.22, 24
72.23, 36
72.24, 24
72.25, 26
72.26, 33
72.27, 28
72.28, 27
72.29, 24
72.3, 30
72.31, 32
72.32, 28
72.33, 18
72.34, 19
72.35, 15
72.36, 14
72.37, 24
72.38, 16
72.39, 23
72.4, 23
72.41, 16
72.42, 17
72.43, 26
72.44, 19
72.45, 26
72.46, 20
72.47, 29
72.48, 13
72.49, 18
72.5, 15
72.51, 16
72.52, 15
72.53, 10
72.54, 13
72.55, 11
72.56, 11
72.57, 9
72.58, 12
72.59, 13
72.6, 11
72.61, 16
72.62, 5
72.63, 8
72.64, 12
72.65, 12
72.66, 13
72.67, 9
72.68, 6
72.69, 7
72.7, 12
72.71, 9
72.72, 10
72.73, 10
72.74, 8
72.75, 9
72.76, 8
72.77, 15
72.78, 10
72.79, 13
72.8, 19
72.81, 6
72.82, 9
72.83, 11
72.84, 13
72.85, 10
72.86, 14
72.87, 6
72.88, 14
72.89, 9
72.9, 4
72.91, 10
72.92, 6
72.93, 10
72.94, 9
72.95, 12
72.96, 8
72.97, 7
72.98, 7
72.99, 9
73, 14
73.01, 6
73.02, 5
73.03, 8
73.04, 13
73.05, 7
73.06, 11
73.07, 12
73.08, 14
73.09, 10
73.1, 16
73.11, 6
73.12, 12
73.13, 14
73.14, 13
73.15, 10
73.16, 7
73.17, 8
73.18, 15
73.19, 11
73.2, 17
73.21, 15
73.22, 9
73.23, 9
73.24, 10
73.25, 14
73.26, 16
73.27, 8
73.28, 10
73.29, 10
73.3, 12
73.31, 8
73.32, 7
73.33, 9
73.34, 7
73.35, 16
73.36, 9
73.37, 12
73.38, 6
73.39, 6
73.4, 6
73.41, 15
73.42, 8
73.43, 12
73.44, 11
73.45, 15
73.46, 15
73.47, 10
73.48, 11
73.49, 18
73.5, 6
73.51, 11
73.52, 10
73.53, 9
73.54, 15
73.55, 16
73.56, 18
73.57, 19
73.58, 14
73.59, 11
73.6, 15
73.61, 26
73.62, 22
73.63, 24
73.64, 22
73.65, 24
73.66, 33
73.67, 30
73.68, 40
73.69, 36
73.7, 42
73.71, 48
73.72, 53
73.73, 55
73.74, 44
73.75, 48
73.76, 54
73.77, 41
73.78, 47
73.79, 35
73.8, 39
73.81, 32
73.82, 27
73.83, 28
73.84, 29
73.85, 25
73.86, 31
73.87, 23
73.88, 33
73.89, 38
73.9, 24
73.91, 25
73.92, 34
73.93, 25
73.94, 38
73.95, 26
73.96, 40
73.97, 27
73.98, 35
73.99, 28
74, 16
74.01, 23
74.02, 13
74.03, 16
74.04, 19
74.05, 18
74.06, 11
74.07, 12
74.08, 16
74.09, 14
74.1, 13
74.11, 10
74.12, 14
74.13, 21
74.14, 8
74.15, 10
74.16, 11
74.17, 7
74.18, 7
74.19, 11
74.2, 7
74.21, 8
74.22, 11
74.23, 9
74.24, 6
74.25, 13
74.26, 8
74.27, 10
74.28, 11
74.29, 14
74.3, 11
74.31, 13
74.32, 18
74.33, 12
74.34, 15
74.35, 10
74.36, 11
74.37, 15
74.38, 20
74.39, 14
74.4, 14
74.41, 19
74.42, 9
74.43, 17
74.44, 14
74.45, 13
74.46, 14
74.47, 14
74.48, 11
74.49, 10
74.5, 19
74.51, 12
74.52, 14
74.53, 18
74.54, 17
74.55, 12
74.56, 13
74.57, 10
74.58, 7
74.59, 10
74.6, 10
74.61, 12
74.62, 17
74.63, 16
74.64, 15
74.65, 13
74.66, 12
74.67, 12
74.68, 16
74.69, 14
74.7, 7
74.71, 7
74.72, 13
74.73, 9
74.74, 9
74.75, 9
74.76, 11
74.77, 19
74.78, 16
74.79, 7
74.8, 6
74.81, 12
74.82, 16
74.83, 15
74.84, 6
74.85, 10
74.86, 10
74.87, 12
74.88, 7
74.89, 11
74.9, 13
74.91, 9
74.92, 9
74.93, 16
74.94, 10
74.95, 15
74.96, 9
74.97, 11
74.98, 8
74.99, 9
75, 14
75.01, 14
75.02, 14
75.03, 10
75.04, 17
75.05, 15
75.06, 9
75.07, 13
75.08, 13
75.09, 16
75.1, 24
75.11, 18
75.12, 16
75.13, 17
75.14, 12
75.15, 18
75.16, 34
75.17, 17
75.18, 25
75.19, 35
75.2, 36
75.21, 26
75.22, 17
75.23, 33
75.24, 28
75.25, 29
75.26, 28
75.27, 30
75.28, 30
75.29, 23
75.3, 35
75.31, 23
75.32, 27
75.33, 19
75.34, 24
75.35, 23
75.36, 30
75.37, 22
75.38, 24
75.39, 20
75.4, 19
75.41, 26
75.42, 24
75.43, 23
75.44, 30
75.45, 26
75.46, 18
75.47, 22
75.48, 22
75.49, 20
75.5, 19
75.51, 27
75.52, 17
75.53, 23
75.54, 16
75.55, 14
75.56, 13
75.57, 7
75.58, 18
75.59, 18
75.6, 8
75.61, 13
75.62, 15
75.63, 9
75.64, 13
75.65, 9
75.66, 13
75.67, 10
75.68, 11
75.69, 13
75.7, 10
75.71, 11
75.72, 8
75.73, 5
75.74, 14
75.75, 5
75.76, 19
75.77, 9
75.78, 10
75.79, 7
75.8, 10
75.81, 11
75.82, 8
75.83, 12
75.84, 10
75.85, 20
75.86, 11
75.87, 19
75.88, 10
75.89, 19
75.9, 5
75.91, 8
75.92, 10
75.93, 19
75.94, 17
75.95, 7
75.96, 13
75.97, 18
75.98, 12
75.99, 15
76, 6
76.01, 18
76.02, 8
76.03, 13
76.04, 9
76.05, 11
76.06, 12
76.07, 13
76.08, 13
76.09, 10
76.1, 9
76.11, 9
76.12, 12
76.13, 4
76.14, 14
76.15, 12
76.16, 8
76.17, 6
76.18, 12
76.19, 6
76.2, 7
76.21, 9
76.22, 12
76.23, 10
76.24, 6
76.25, 15
76.26, 14
76.27, 14
76.28, 12
76.29, 10
76.3, 8
76.31, 10
76.32, 14
76.33, 19
76.34, 3
76.35, 13
76.36, 8
76.37, 8
76.38, 7
76.39, 12
76.4, 5
76.41, 15
76.42, 11
76.43, 11
76.44, 12
76.45, 11
76.46, 10
76.47, 9
76.48, 9
76.49, 11
76.5, 9
76.51, 10
76.52, 8
76.53, 6
76.54, 7
76.55, 6
76.56, 12
76.57, 9
76.58, 17
76.59, 17
76.6, 9
76.61, 10
76.62, 15
76.63, 15
76.64, 17
76.65, 14
76.66, 13
76.67, 14
76.68, 13
76.69, 16
76.7, 12
76.71, 13
76.72, 13
76.73, 11
76.74, 10
76.75, 8
76.76, 17
76.77, 16
76.78, 5
76.79, 12
76.8, 15
76.81, 18
76.82, 9
76.83, 15
76.84, 8
76.85, 9
76.86, 7
76.87, 10
76.88, 13
76.89, 20
76.9, 12
76.91, 8
76.92, 14
76.93, 14
76.94, 16
76.95, 13
76.96, 19
76.97, 11
76.98, 14
76.99, 9
77, 10
77.01, 14
77.02, 10
77.03, 4
77.04, 6
77.05, 12
77.06, 12
77.07, 4
77.08, 12
77.09, 12
77.1, 15
77.11, 9
77.12, 9
77.13, 9
77.14, 7
77.15, 14
77.16, 12
77.17, 9
77.18, 15
77.19, 8
77.2, 4
77.21, 11
77.22, 15
77.23, 11
77.24, 9
77.25, 5
77.26, 13
77.27, 10
77.28, 7
77.29, 10
77.3, 9
77.31, 8
77.32, 13
77.33, 10
77.34, 8
77.35, 10
77.36, 7
77.37, 9
77.38, 2
77.39, 5
77.4, 6
77.41, 10
77.42, 16
77.43, 11
77.44, 11
77.45, 10
77.46, 5
77.47, 10
77.48, 13
77.49, 10
77.5, 12
77.51, 13
77.52, 9
77.53, 14
77.54, 12
77.55, 10
77.56, 8
77.57, 9
77.58, 8
77.59, 9
77.6, 10
77.61, 7
77.62, 5
77.63, 11
77.64, 9
77.65, 15
77.66, 9
77.67, 17
77.68, 15
77.69, 12
77.7, 12
77.71, 8
77.72, 7
77.73, 5
77.74, 11
77.75, 10
77.76, 13
77.77, 9
77.78, 18
77.79, 13
77.8, 8
77.81, 7
77.82, 9
77.83, 4
77.84, 10
77.85, 15
77.86, 9
77.87, 11
77.88, 14
77.89, 12
77.9, 12
77.91, 8
77.92, 14
77.93, 13
77.94, 7
77.95, 13
77.96, 17
77.97, 19
77.98, 12
77.99, 17
78, 17
78.01, 11
78.02, 16
78.03, 25
78.04, 25
78.05, 21
78.06, 25
78.07, 27
78.08, 34
78.09, 31
78.1, 38
78.11, 41
78.12, 45
78.13, 34
78.14, 42
78.15, 60
78.16, 45
78.17, 63
78.18, 64
78.19, 59
78.2, 58
78.21, 52
78.22, 71
78.23, 59
78.24, 53
78.25, 70
78.26, 59
78.27, 43
78.28, 36
78.29, 35
78.3, 41
78.31, 32
78.32, 42
78.33, 33
78.34, 39
78.35, 24
78.36, 33
78.37, 44
78.38, 33
78.39, 37
78.4, 26
78.41, 35
78.42, 26
78.43, 36
78.44, 31
78.45, 26
78.46, 43
78.47, 30
78.48, 31
78.49, 28
78.5, 36
78.51, 24
78.52, 25
78.53, 17
78.54, 19
78.55, 19
78.56, 15
78.57, 15
78.58, 17
78.59, 11
78.6, 16
78.61, 20
78.62, 9
78.63, 11
78.64, 9
78.65, 6
78.66, 7
78.67, 13
78.68, 12
78.69, 11
78.7, 16
78.71, 18
78.72, 8
78.73, 12
78.74, 10
78.75, 9
78.76, 6
78.77, 8
78.78, 11
78.79, 13
78.8, 10
78.81, 10
78.82, 18
78.83, 8
78.84, 10
78.85, 7
78.86, 6
78.87, 10
78.88, 9
78.89, 6
78.9, 8
78.91, 13
78.92, 16
78.93, 6
78.94, 8
78.95, 13
78.96, 6
78.97, 6
78.98, 9
78.99, 7
79, 15
79.01, 4
79.02, 6
79.03, 13
79.04, 10
79.05, 7
79.06, 6
79.07, 13
79.08, 8
79.09, 8
79.1, 14
79.11, 10
79.12, 7
79.13, 15
79.14, 14
79.15, 7
79.16, 7
79.17, 12
79.18, 9
79.19, 13
79.2, 9
79.21, 13
79.22, 11
79.23, 8
79.24, 12
79.25, 7
79.26, 9
79.27, 8
79.28, 13
79.29, 5
79.3, 7
79.31, 12
79.32, 10
79.33, 9
79.34, 4
79.35, 12
79.36, 6
79.37, 12
79.38, 4
79.39, 11
79.4, 6
79.41, 11
79.42, 7
79.43, 9
79.44, 10
79.45, 7
79.46, 11
79.47, 8
79.48, 12
79.49, 5
79.5, 10
79.51, 7
79.52, 6
79.53, 8
79.54, 13
79.55, 11
79.56, 12
79.57, 6
79.58, 4
79.59, 4
79.6, 7
79.61, 7
79.62, 11
79.63, 8
79.64, 9
79.65, 3
79.66, 5
79.67, 6
79.68, 8
79.69, 13
79.7, 8
79.71, 16
79.72, 2
79.73, 8
79.74, 11
79.75, 7
79.76, 8
79.77, 7
79.78, 2
79.79, 5
79.8, 15
79.81, 11
79.82, 14
79.83, 6
79.84, 13
79.85, 3
79.86, 9
79.87, 7
79.88, 7
79.89, 14
79.9, 12
79.91, 11
79.92, 9
79.93, 7
79.94, 7
79.95, 12
79.96, 6
79.97, 15
79.98, 13
79.99, 8
80, 5
80.01, 11
80.02, 7
80.03, 6
80.04, 7
80.05, 9
80.06, 9
80.07, 13
80.08, 15
80.09, 7
80.1, 7
80.11, 10
80.12, 3
80.13, 15
80.14, 6
80.15, 12
80.16, 10
80.17, 8
80.18, 8
80.19, 7
80.2, 10
80.21, 8
80.22, 1
80.23, 6
80.24, 9
80.25, 5
80.26, 6
80.27, 10
80.28, 7
80.29, 16
80.3, 7
80.31, 9
80.32, 9
80.33, 8
80.34, 13
80.35, 9
80.36, 8
80.37, 7
80.38, 10
80.39, 6
80.4, 8
80.41, 4
80.42, 8
80.43, 6
80.44, 8
80.45, 7
80.46, 8
80.47, 10
80.48, 11
80.49, 7
80.5, 14
80.51, 5
80.52, 8
80.53, 10
80.54, 4
80.55, 12
80.56, 14
80.57, 6
80.58, 3
80.59, 8
80.6, 16
80.61, 15
80.62, 12
80.63, 7
80.64, 6
80.65, 8
80.66, 7
80.67, 9
80.68, 15
80.69, 5
80.7, 6
80.71, 7
80.72, 18
80.73, 5
80.74, 15
80.75, 8
80.76, 8
80.77, 7
80.78, 16
80.79, 15
80.8, 11
80.81, 8
80.82, 10
80.83, 10
80.84, 9
80.85, 8
80.86, 5
80.87, 7
80.88, 14
80.89, 6
80.9, 17
80.91, 13
80.92, 11
80.93, 9
80.94, 15
80.95, 19
80.96, 10
80.97, 12
80.98, 13
80.99, 22
81, 20
81.01, 14
81.02, 14
81.03, 18
81.04, 11
81.05, 19
81.06, 15
81.07, 28
81.08, 22
81.09, 29
81.1, 32
81.11, 36
81.12, 28
81.13, 37
81.14, 38
81.15, 40
81.16, 36
81.17, 34
81.18, 38
81.19, 36
81.2, 27
81.21, 29
81.22, 24
81.23, 19
81.24, 25
81.25, 5
81.26, 10
81.27, 18
81.28, 14
81.29, 20
81.3, 19
81.31, 18
81.32, 17
81.33, 24
81.34, 22
81.35, 17
81.36, 23
81.37, 18
81.38, 20
81.39, 28
81.4, 29
81.41, 22
81.42, 16
81.43, 7
81.44, 20
81.45, 21
81.46, 11
81.47, 9
81.48, 19
81.49, 18
81.5, 11
81.51, 10
81.52, 8
81.53, 8
81.54, 11
81.55, 10
81.56, 8
81.57, 7
81.58, 8
81.59, 11
81.6, 14
81.61, 17
81.62, 7
81.63, 12
81.64, 6
81.65, 5
81.66, 19
81.67, 6
81.68, 4
81.69, 9
81.7, 9
81.71, 8
81.72, 8
81.73, 13
81.74, 7
81.75, 10
81.76, 16
81.77, 12
81.78, 7
81.79, 19
81.8, 13
81.81, 9
81.82, 11
81.83, 13
81.84, 16
81.85, 25
81.86, 19
81.87, 23
81.88, 13
81.89, 17
81.9, 12
81.91, 12
81.92, 13
81.93, 16
81.94, 16
81.95, 14
81.96, 12
81.97, 13
81.98, 16
81.99, 17
82, 5
82.01, 9
82.02, 8
82.03, 18
82.04, 11
82.05, 13
82.06, 4
82.07, 15
82.08, 5
82.09, 9
82.1, 9
82.11, 11
82.12, 7
82.13, 20
82.14, 16
82.15, 19
82.16, 7
82.17, 8
82.18, 9
82.19, 15
82.2, 7
82.21, 12
82.22, 5
82.23, 9
82.24, 6
82.25, 13
82.26, 16
82.27, 5
82.28, 10
82.29, 6
82.3, 14
82.31, 11
82.32, 11
82.33, 5
82.34, 6
82.35, 17
82.36, 9
82.37, 8
82.38, 9
82.39, 7
82.4, 12
82.41, 17
82.42, 4
82.43, 11
82.44, 12
82.45, 13
82.46, 11
82.47, 14
82.48, 13
82.49, 10
82.5, 17
82.51, 23
82.52, 26
82.53, 21
82.54, 25
82.55, 31
82.56, 17
82.57, 30
82.58, 23
82.59, 13
82.6, 25
82.61, 24
82.62, 22
82.63, 30
82.64, 26
82.65, 21
82.66, 19
82.67, 29
82.68, 20
82.69, 17
82.7, 23
82.71, 13
82.72, 14
82.73, 11
82.74, 20
82.75, 21
82.76, 17
82.77, 20
82.78, 12
82.79, 18
82.8, 11
82.81, 24
82.82, 13
82.83, 18
82.84, 25
82.85, 21
82.86, 26
82.87, 24
82.88, 17
82.89, 22
82.9, 14
82.91, 15
82.92, 13
82.93, 13
82.94, 14
82.95, 11
82.96, 11
82.97, 12
82.98, 15
82.99, 11
83, 9
83.01, 9
83.02, 12
83.03, 9
83.04, 8
83.05, 5
83.06, 11
83.07, 8
83.08, 10
83.09, 2
83.1, 11
83.11, 10
83.12, 9
83.13, 7
83.14, 11
83.15, 9
83.16, 12
83.17, 7
83.18, 8
83.19, 14
83.2, 7
83.21, 16
83.22, 5
83.23, 9
83.24, 7
83.25, 8
83.26, 8
83.27, 9
83.28, 14
83.29, 5
83.3, 13
83.31, 9
83.32, 6
83.33, 7
83.34, 7
83.35, 4
83.36, 9
83.37, 5
83.38, 7
83.39, 3
83.4, 6
83.41, 13
83.42, 7
83.43, 5
83.44, 7
83.45, 5
83.46, 7
83.47, 7
83.48, 11
83.49, 15
83.5, 5
83.51, 13
83.52, 5
83.53, 12
83.54, 11
83.55, 4
83.56, 5
83.57, 6
83.58, 3
83.59, 16
83.6, 9
83.61, 5
83.62, 8
83.63, 6
83.64, 8
83.65, 7
83.66, 5
83.67, 5
83.68, 10
83.69, 5
83.7, 11
83.71, 6
83.72, 4
83.73, 11
83.74, 8
83.75, 6
83.76, 13
83.77, 9
83.78, 10
83.79, 7
83.8, 7
83.81, 6
83.82, 8
83.83, 12
83.84, 6
83.85, 9
83.86, 7
83.87, 6
83.88, 7
83.89, 16
83.9, 11
83.91, 8
83.92, 11
83.93, 9
83.94, 5
83.95, 9
83.96, 6
83.97, 7
83.98, 10
83.99, 9
84, 7
84.01, 3
84.02, 9
84.03, 19
84.04, 11
84.05, 4
84.06, 8
84.07, 8
84.08, 8
84.09, 9
84.1, 12
84.11, 9
84.12, 6
84.13, 9
84.14, 12
84.15, 9
84.16, 9
84.17, 10
84.18, 5
84.19, 6
84.2, 7
84.21, 8
84.22, 14
84.23, 8
84.24, 7
84.25, 11
84.26, 7
84.27, 12
84.28, 11
84.29, 9
84.3, 16
84.31, 2
84.32, 7
84.33, 11
84.34, 12
84.35, 8
84.36, 7
84.37, 4
84.38, 4
84.39, 11
84.4, 9
84.41, 12
84.42, 4
84.43, 4
84.44, 4
84.45, 6
84.46, 13
84.47, 7
84.48, 7
84.49, 10
84.5, 6
84.51, 5
84.52, 5
84.53, 8
84.54, 10
84.55, 9
84.56, 5
84.57, 6
84.58, 3
84.59, 9
84.6, 8
84.61, 7
84.62, 11
84.63, 7
84.64, 11
84.65, 10
84.66, 6
84.67, 13
84.68, 2
84.69, 14
84.7, 7
84.71, 10
84.72, 9
84.73, 8
84.74, 3
84.75, 5
84.76, 9
84.77, 11
84.78, 10
84.79, 5
84.8, 8
84.81, 10
84.82, 2
84.83, 8
84.84, 9
84.85, 3
84.86, 10
84.87, 11
84.88, 13
84.89, 10
84.9, 11
84.91, 11
84.92, 6
84.93, 5
84.94, 7
84.95, 5
84.96, 6
84.97, 5
84.98, 10
84.99, 3
85, 9
85.01, 6
85.02, 8
85.03, 11
85.04, 6
85.05, 12
85.06, 9
85.07, 8
85.08, 6
85.09, 5
85.1, 7
85.11, 4
85.12, 10
85.13, 3
85.14, 6
85.15, 4
85.16, 9
85.17, 11
85.18, 5
85.19, 6
85.2, 11
85.21, 10
85.22, 10
85.23, 6
85.24, 10
85.25, 12
85.26, 4
85.27, 10
85.28, 8
85.29, 6
85.3, 9
85.31, 15
85.32, 8
85.33, 5
85.34, 4
85.35, 4
85.36, 15
85.37, 5
85.38, 4
85.39, 14
85.4, 8
85.41, 11
85.42, 8
85.43, 7
85.44, 13
85.45, 15
85.46, 17
85.47, 17
85.48, 13
85.49, 18
85.5, 11
85.51, 11
85.52, 12
85.53, 9
85.54, 12
85.55, 10
85.56, 11
85.57, 7
85.58, 9
85.59, 7
85.6, 17
85.61, 11
85.62, 10
85.63, 11
85.64, 16
85.65, 10
85.66, 7
85.67, 9
85.68, 12
85.69, 9
85.7, 13
85.71, 11
85.72, 13
85.73, 6
85.74, 10
85.75, 13
85.76, 13
85.77, 5
85.78, 15
85.79, 15
85.8, 10
85.81, 14
85.82, 12
85.83, 7
85.84, 15
85.85, 7
85.86, 8
85.87, 8
85.88, 9
85.89, 10
85.9, 9
85.91, 9
85.92, 11
85.93, 9
85.94, 9
85.95, 6
85.96, 9
85.97, 6
85.98, 11
85.99, 4
86, 8
86.01, 8
86.02, 6
86.03, 8
86.04, 11
86.05, 9
86.06, 9
86.07, 4
86.08, 4
86.09, 11
86.1, 9
86.11, 10
86.12, 9
86.13, 5
86.14, 3
86.15, 6
86.16, 6
86.17, 7
86.18, 10
86.19, 3
86.2, 6
86.21, 4
86.22, 6
86.23, 5
86.24, 11
86.25, 6
86.26, 5
86.27, 10
86.28, 11
86.29, 12
86.3, 8
86.31, 10
86.32, 7
86.33, 7
86.34, 5
86.35, 10
86.36, 5
86.37, 10
86.38, 7
86.39, 12
86.4, 11
86.41, 9
86.42, 10
86.43, 8
86.44, 6
86.45, 10
86.46, 13
86.47, 10
86.48, 5
86.49, 8
86.5, 8
86.51, 7
86.52, 10
86.53, 13
86.54, 12
86.55, 12
86.56, 9
86.57, 12
86.58, 15
86.59, 6
86.6, 12
86.61, 13
86.62, 7
86.63, 16
86.64, 12
86.65, 12
86.66, 13
86.67, 13
86.68, 8
86.69, 4
86.7, 8
86.71, 18
86.72, 8
86.73, 10
86.74, 9
86.75, 16
86.76, 10
86.77, 16
86.78, 15
86.79, 14
86.8, 13
86.81, 8
86.82, 27
86.83, 22
86.84, 20
86.85, 20
86.86, 23
86.87, 21
86.88, 25
86.89, 21
86.9, 22
86.91, 28
86.92, 24
86.93, 22
86.94, 18
86.95, 19
86.96, 18
86.97, 28
86.98, 34
86.99, 24
87, 27
87.01, 28
87.02, 16
87.03, 15
87.04, 15
87.05, 23
87.06, 16
87.07, 17
87.08, 16
87.09, 25
87.1, 15
87.11, 12
87.12, 13
87.13, 19
87.14, 18
87.15, 12
87.16, 18
87.17, 19
87.18, 12
87.19, 14
87.2, 13
87.21, 17
87.22, 20
87.23, 24
87.24, 20
87.25, 14
87.26, 15
87.27, 11
87.28, 21
87.29, 19
87.3, 13
87.31, 13
87.32, 10
87.33, 9
87.34, 9
87.35, 7
87.36, 6
87.37, 5
87.38, 7
87.39, 12
87.4, 16
87.41, 10
87.42, 4
87.43, 7
87.44, 8
87.45, 6
87.46, 10
87.47, 7
87.48, 9
87.49, 12
87.5, 7
87.51, 8
87.52, 6
87.53, 4
87.54, 12
87.55, 7
87.56, 9
87.57, 8
87.58, 4
87.59, 7
87.6, 6
87.61, 5
87.62, 19
87.63, 9
87.64, 4
87.65, 9
87.66, 7
87.67, 9
87.68, 6
87.69, 13
87.7, 8
87.71, 6
87.72, 4
87.73, 10
87.74, 8
87.75, 7
87.76, 11
87.77, 6
87.78, 13
87.79, 6
87.8, 6
87.81, 5
87.82, 7
87.83, 2
87.84, 10
87.85, 8
87.86, 10
87.87, 10
87.88, 8
87.89, 6
87.9, 14
87.91, 4
87.92, 6
87.93, 9
87.94, 12
87.95, 6
87.96, 10
87.97, 5
87.98, 14
87.99, 9
88, 6
88.01, 8
88.02, 6
88.03, 11
88.04, 11
88.05, 8
88.06, 9
88.07, 7
88.08, 7
88.09, 4
88.1, 6
88.11, 9
88.12, 7
88.13, 2
88.14, 6
88.15, 6
88.16, 4
88.17, 8
88.18, 10
88.19, 9
88.2, 11
88.21, 8
88.22, 7
88.23, 15
88.24, 7
88.25, 6
88.26, 3
88.27, 10
88.28, 12
88.29, 9
88.3, 7
88.31, 6
88.32, 11
88.33, 9
88.34, 10
88.35, 8
88.36, 6
88.37, 10
88.38, 8
88.39, 7
88.4, 7
88.41, 8
88.42, 11
88.43, 5
88.44, 9
88.45, 13
88.46, 9
88.47, 4
88.48, 11
88.49, 6
88.5, 13
88.51, 12
88.52, 12
88.53, 10
88.54, 13
88.55, 14
88.56, 8
88.57, 4
88.58, 7
88.59, 4
88.6, 11
88.61, 14
88.62, 7
88.63, 6
88.64, 4
88.65, 7
88.66, 7
88.67, 14
88.68, 16
88.69, 7
88.7, 13
88.71, 6
88.72, 3
88.73, 9
88.74, 5
88.75, 3
88.76, 5
88.77, 3
88.78, 13
88.79, 9
88.8, 8
88.81, 9
88.82, 9
88.83, 6
88.84, 9
88.85, 10
88.86, 6
88.87, 10
88.88, 5
88.89, 10
88.9, 8
88.91, 4
88.92, 7
88.93, 5
88.94, 8
88.95, 2
88.96, 7
88.97, 11
88.98, 3
88.99, 6
89, 6
89.01, 6
89.02, 11
89.03, 10
89.04, 2
89.05, 10
89.06, 4
89.07, 8
89.08, 10
89.09, 8
89.1, 13
89.11, 9
89.12, 13
89.13, 5
89.14, 6
89.15, 2
89.16, 8
89.17, 9
89.18, 8
89.19, 7
89.2, 11
89.21, 11
89.22, 4
89.23, 10
89.24, 8
89.25, 4
89.26, 7
89.27, 3
89.28, 5
89.29, 4
89.3, 9
89.31, 7
89.32, 7
89.33, 5
89.34, 9
89.35, 2
89.36, 7
89.37, 10
89.38, 9
89.39, 8
89.4, 10
89.41, 6
89.42, 4
89.43, 11
89.44, 6
89.45, 4
89.46, 8
89.47, 3
89.48, 15
89.49, 12
89.5, 7
89.51, 8
89.52, 5
89.53, 8
89.54, 9
89.55, 5
89.56, 12
89.57, 8
89.58, 5
89.59, 5
89.6, 5
89.61, 7
89.62, 10
89.63, 5
89.64, 7
89.65, 12
89.66, 7
89.67, 8
89.68, 6
89.69, 7
89.7, 5
89.71, 10
89.72, 8
89.73, 14
89.74, 15
89.75, 12
89.76, 12
89.77, 7
89.78, 7
89.79, 10
89.8, 17
89.81, 9
89.82, 9
89.83, 15
89.84, 12
89.85, 6
89.86, 8
89.87, 18
89.88, 15
89.89, 9
89.9, 10
89.91, 10
89.92, 10
89.93, 8
89.94, 9
89.95, 7
89.96, 4
89.97, 10
89.98, 7
89.99, 11
90, 8
##END=



